,TIMESTAMP_MS,COUNTER,DEVICE_ID,PULSE_BPM,SPO2_PCT,SPO2_STATUS,PLETH,BATTERY_PCT,RED_ADC,IR_ADC,PERFUSION_INDEX
210001,2100890,210098,4,87,99.9,0,51399,94.2,158005,166359,0.6
210002,2100900,210099,4,87,99.9,0,50011,94.2,158023,166381,0.6
210003,2100910,210100,4,87,99.9,0,48555,94.2,158035,166386,0.6
210004,2100920,210101,4,87,99.9,0,47298,94.2,158071,166444,0.6
210005,2100930,210102,4,87,99.9,0,46175,94.2,158099,166498,0.6
210006,2100940,210103,4,87,99.9,0,45049,94.2,158100,166513,0.6
210007,2100950,210104,4,87,99.9,0,43989,94.2,158109,166577,0.6
210008,2100960,210105,4,87,99.9,0,43062,94.2,158127,166589,0.6
210009,2100970,210106,4,87,99.9,0,42132,94.2,158151,166619,0.6
210010,2100980,210107,4,87,99.9,0,41134,94.2,158159,166659,0.6
210011,2100990,210108,4,87,99.9,0,40200,94.2,158174,166706,0.6
210012,2101000,210109,4,87,99.9,0,39197,94.2,158215,166741,0.6
210013,2101010,210110,4,87,99.9,0,38190,94.2,158204,166751,0.6
210014,2101020,210111,4,87,99.9,0,37181,94.2,158229,166783,0.6
210015,2101030,210112,4,87,99.9,0,36100,94.2,158264,166826,0.6
210016,2101040,210113,4,87,99.9,0,35016,94.2,158269,166849,0.6
210017,2101050,210114,4,87,99.9,0,33859,94.2,158290,166916,0.6
210018,2101060,210115,4,87,99.9,0,32630,94.2,158314,166913,0.6
210019,2101070,210116,4,87,99.9,0,31396,94.2,158313,166940,0.6
210020,2101080,210117,4,87,99.9,0,30158,94.2,158298,166963,0.6
210021,2101090,210118,4,87,99.9,0,28915,94.2,158340,167022,0.6
210022,2101100,210119,4,87,99.9,0,27737,94.2,158331,167043,0.6
210023,2101110,210120,4,87,99.9,0,26556,94.2,158374,167067,0.6
210024,2101120,210121,4,87,99.9,0,25441,94.2,158372,167117,0.6
210025,2101130,210122,4,87,99.9,0,24323,94.2,158406,167174,0.6
210026,2101140,210123,4,87,99.9,0,23272,94.2,158450,167166,0.6
210027,2101150,210124,4,87,99.9,0,22219,94.2,158466,167214,0.6
210028,2101160,210125,4,87,99.9,0,21164,94.2,158461,167299,0.6
210029,2101170,210126,4,87,99.9,0,20107,94.2,158481,167270,0.6
210030,2101180,210127,4,87,99.9,0,19188,94.2,158513,167339,0.6
210031,2101190,210128,4,87,99.9,0,18268,94.2,158507,167345,0.6
210032,2101200,210129,4,87,99.9,0,17347,94.2,158519,167349,0.6
210033,2101210,210130,4,87,99.9,0,16425,94.2,158471,167308,0.6
210034,2101220,210131,4,87,99.9,0,15572,94.2,158447,167234,0.6
210035,2101230,210132,4,87,99.9,0,14719,94.2,158396,167097,0.6
210036,2101240,210133,4,87,99.9,0,14006,94.2,158319,166959,0.6
210037,2101250,210134,4,87,99.9,0,13433,94.2,158235,166780,0.6
210038,2101260,210135,4,87,99.9,0,13139,94.2,158146,166633,0.6
210039,2101270,210136,4,87,99.9,0,13126,94.2,158081,166513,0.6
210040,2101280,210137,4,87,99.9,0,13534,94.2,158021,166416,0.6
210041,2101290,210138,4,87,99.9,0,14433,94.2,158009,166328,0.6
210042,2101300,210139,4,87,99.9,0,15894,94.2,157974,166292,0.6
210043,2101310,210140,4,87,99.9,0,17919,94.2,157947,166246,0.6
210044,2101320,210141,4,87,99.9,0,20438,94.2,157939,166181,0.6
210045,2101330,210142,4,87,99.9,0,23456,94.2,157902,166149,0.6
210046,2101340,210143,4,87,99.9,0,26762,94.2,157895,166094,0.6
210047,2101350,210144,4,87,99.9,0,30361,94.2,157887,166086,0.6
210048,2101360,210145,4,87,99.9,0,34114,94.2,157879,166056,0.6
210049,2101370,210146,4,87,99.9,0,37881,94.2,157863,166029,0.6
210050,2101380,210147,4,87,99.9,0,41517,94.2,157862,166008,0.6
210051,2101390,210148,4,87,99.9,0,45017,94.2,157834,165997,0.6
210052,2101400,210149,4,87,99.9,0,48166,94.2,157834,165965,0.6
210053,2101410,210150,4,87,99.9,0,50890,94.2,157833,165967,0.6
210054,2101420,210151,4,87,99.9,0,53329,94.2,157827,165951,0.6
210055,2101430,210152,4,87,99.9,0,55339,94.2,157854,165966,0.6
210056,2101440,210153,4,87,99.9,0,56848,94.2,157862,166003,0.6
210057,2101450,210154,4,87,99.9,0,57928,94.2,157856,166072,0.6
210058,2101460,210155,4,87,99.9,0,58649,94.2,157880,166078,0.6
210059,2101470,210156,4,87,99.9,0,59083,94.2,157917,166145,0.6
210060,2101480,210157,4,87,99.9,0,59088,94.2,157941,166191,0.6
210061,2101490,210158,4,87,99.9,8,58736,94.2,157982,166225,0.6
210062,2101500,210159,4,87,99.9,0,58171,94.2,157988,166215,0.6
210063,2101510,210160,4,87,99.9,0,57248,94.2,157982,166245,0.6
210064,2101520,210161,4,87,99.9,0,56040,94.2,157989,166265,0.6
210065,2101530,210162,4,87,99.9,0,54761,94.2,157968,166279,0.6
210066,2101540,210163,4,87,99.9,0,53268,94.2,157986,166279,0.6
210067,2101550,210164,4,87,99.9,0,51704,94.2,158028,166310,0.6
210068,2101560,210165,4,87,99.9,0,50139,94.2,158019,166336,0.6
210069,2101570,210166,4,87,99.9,0,48574,94.2,158030,166353,0.6
210070,2101580,210167,4,87,99.9,0,47007,94.2,158044,166381,0.6
210071,2101590,210168,4,87,99.9,0,45582,94.2,158057,166429,0.6
210072,2101600,210169,4,87,99.9,0,44228,94.2,158102,166431,0.6
210073,2101610,210170,4,87,99.9,0,43015,94.2,158097,166485,0.6
210074,2101620,210171,4,87,99.9,0,41800,94.2,158110,166539,0.6
210075,2101630,210172,4,87,99.9,0,40655,94.2,158126,166559,0.6
210076,2101640,210173,4,87,99.9,0,39580,94.2,158139,166603,0.6
210077,2101650,210174,4,87,99.9,0,38574,94.2,158148,166610,0.6
210078,2101660,210175,4,87,99.9,0,37638,94.2,158185,166651,0.6
210079,2101670,210176,4,87,99.9,0,36700,94.2,158183,166674,0.6
210080,2101680,210177,4,87,99.9,0,35758,94.2,158209,166746,0.6
210081,2101690,210178,4,87,99.9,0,34813,94.2,158211,166760,0.6
210082,2101700,210179,4,87,99.9,0,33865,94.2,158238,166795,0.6
210083,2101710,210180,4,87,99.9,0,32840,94.2,158249,166818,0.6
210084,2101720,210181,4,87,99.9,0,31738,94.2,158260,166858,0.6
210085,2101730,210182,4,87,99.9,0,30631,94.2,158274,166885,0.6
210086,2101740,210183,4,87,99.9,0,29521,94.2,158271,166922,0.6
210087,2101750,210184,4,87,99.9,0,28406,94.2,158304,166928,0.6
210088,2101760,210185,4,87,99.9,0,27289,94.2,158340,166958,0.6
210089,2101770,210186,4,87,99.9,0,26020,94.2,158317,166987,0.6
210090,2101780,210187,4,87,99.9,0,24822,94.2,158351,167027,0.6
210091,2101790,210188,4,87,99.9,0,23695,94.2,158370,167059,0.6
210092,2101800,210189,4,87,99.9,0,22566,94.2,158375,167101,0.6
210093,2101810,210190,4,87,99.9,0,21435,94.2,158407,167151,0.6
210094,2101820,210191,4,87,99.9,0,20377,94.2,158438,167155,0.6
210095,2101830,210192,4,87,99.9,0,19391,94.2,158441,167185,0.6
210096,2101840,210193,4,87,99.9,0,18405,94.2,158469,167234,0.6
210097,2101850,210194,4,87,99.9,0,17343,94.2,158461,167271,0.6
210098,2101860,210195,4,87,99.9,0,16280,94.2,158468,167288,0.6
210099,2101870,210196,4,87,99.9,0,15216,94.2,158486,167319,0.6
210100,2101880,210197,4,87,99.9,0,14227,94.2,158522,167376,0.6
210101,2101890,210198,4,87,99.9,0,13313,94.2,158547,167411,0.6
210102,2101900,210199,4,87,99.9,0,12398,94.2,158506,167391,0.6
210103,2101910,210200,4,87,99.9,0,11484,94.2,158533,167407,0.6
210104,2101920,210201,4,87,99.9,0,10570,94.2,158503,167344,0.6
210105,2101930,210202,4,87,99.9,0,9732,94.2,158450,167215,0.6
210106,2101940,210203,4,87,99.9,0,8895,94.2,158349,167064,0.6
210107,2101950,210204,4,87,99.9,0,8284,94.2,158309,166905,0.6
210108,2101960,210205,4,87,99.9,0,7974,94.2,158215,166719,0.6
210109,2101970,210206,4,87,99.9,0,7891,94.2,158140,166638,0.6
210110,2101980,210207,4,87,99.9,0,8185,94.2,158106,166513,0.6
210111,2101990,210208,4,87,99.9,0,9081,94.2,158052,166403,0.6
210112,2102000,210209,4,87,99.9,0,10503,94.2,158028,166362,0.6
210113,2102010,210210,4,87,99.9,0,12454,94.2,157995,166319,0.6
210114,2102020,210211,4,87,99.9,0,15008,94.2,157997,166271,0.6
210115,2102030,210212,4,87,99.9,0,18092,94.2,157973,166238,0.6
210116,2102040,210213,4,87,99.9,0,21559,94.2,157967,166179,0.6
210117,2102050,210214,4,87,99.9,0,25335,94.2,157964,166188,0.6
210118,2102060,210215,4,87,99.9,0,29348,94.2,157957,166161,0.6
210119,2102070,210216,4,87,99.9,0,33300,94.2,157934,166158,0.6
210120,2102080,210217,4,87,99.9,0,37189,94.2,157936,166130,0.6
210121,2102090,210218,4,87,99.9,0,40938,94.2,157928,166114,0.6
210122,2102100,210219,4,87,99.9,0,44465,94.2,157909,166089,0.6
210123,2102110,210220,4,87,99.9,0,47538,94.2,157913,166091,0.6
210124,2102120,210221,4,87,99.9,0,50231,94.2,157921,166091,0.6
210125,2102130,210222,4,87,99.9,0,52390,94.2,157923,166125,0.6
210126,2102140,210223,4,87,99.9,0,54088,94.2,157929,166141,0.6
210127,2102150,210224,4,87,99.9,0,55325,94.2,157973,166180,0.6
210128,2102160,210225,4,87,99.9,0,56102,94.2,157966,166233,0.6
210129,2102170,210226,4,87,99.9,0,56495,94.2,157987,166292,0.6
210130,2102180,210227,4,87,99.9,0,56503,94.2,158008,166322,0.6
210131,2102190,210228,4,87,99.9,8,56128,94.2,158024,166330,0.6
210132,2102200,210229,4,87,99.9,0,55523,94.2,158043,166356,0.6
210133,2102210,210230,4,87,99.9,0,54534,94.2,158078,166371,0.6
210134,2102220,210231,4,87,99.9,0,53392,94.2,158064,166368,0.6
210135,2102230,210232,4,87,99.9,0,52019,94.2,158077,166390,0.6
210136,2102240,210233,4,87,99.9,0,50492,94.2,158082,166435,0.6
210137,2102250,210234,4,87,99.9,0,48888,94.2,158086,166431,0.6
210138,2102260,210235,4,87,99.9,0,47282,94.2,158085,166465,0.6
210139,2102270,210236,4,87,99.9,0,45675,94.2,158104,166481,0.6
210140,2102280,210237,4,87,99.9,0,44142,94.2,158110,166511,0.6
210141,2102290,210238,4,87,99.9,0,42685,94.2,158130,166545,0.6
210142,2102300,210239,4,87,99.9,0,41302,94.2,158154,166569,0.6
210143,2102310,210240,4,87,99.9,0,39993,94.2,158175,166597,0.6
210144,2102320,210241,4,87,99.9,0,38837,94.2,158185,166643,0.6
210145,2102330,210242,4,87,99.9,0,37678,94.2,158183,166681,0.6
210146,2102340,210243,4,87,99.9,0,36671,94.2,158204,166725,0.6
210147,2102350,210244,4,87,99.9,0,35661,94.2,158217,166731,0.6
210148,2102360,210245,4,87,99.9,0,34726,94.2,158258,166785,0.6
210149,2102370,210246,4,87,99.9,0,33709,94.2,158257,166809,0.6
210150,2102380,210247,4,87,99.9,0,32767,94.2,158270,166832,0.6
210151,2102390,210248,4,87,99.9,0,31821,94.2,158302,166900,0.7
210152,2102400,210249,4,87,99.9,0,30872,94.2,158314,166892,0.7
210153,2102410,210250,4,87,99.9,0,29761,94.2,158321,166918,0.7
210154,2102420,210251,4,87,99.9,0,28646,94.2,158347,166987,0.7
210155,2102430,210252,4,87,99.9,0,27528,94.2,158346,166991,0.7
210156,2102440,210253,4,87,99.9,0,26327,94.2,158350,167007,0.7
210157,2102450,210254,4,87,99.9,0,25044,94.2,158377,167028,0.7
210158,2102460,210255,4,87,99.9,0,23757,94.2,158400,167075,0.7
210159,2102470,210256,4,87,99.9,0,22467,94.2,158407,167127,0.7
210160,2102480,210257,4,87,99.9,0,21255,94.2,158441,167156,0.7
210161,2102490,210258,4,87,99.9,0,20201,94.2,158429,167194,0.7
210162,2102500,210259,4,87,99.9,0,19066,94.2,158462,167205,0.7
210163,2102510,210260,4,87,99.9,0,17929,94.2,158455,167252,0.7
210164,2102520,210261,4,87,99.9,0,16791,94.2,158467,167263,0.7
210165,2102530,210262,4,87,99.9,0,15732,94.2,158492,167320,0.7
210166,2102540,210263,4,87,99.9,0,14753,94.2,158532,167348,0.7
210167,2102550,210264,4,87,99.9,0,13774,94.2,158516,167382,0.7
210168,2102560,210265,4,87,99.9,0,12795,94.2,158545,167388,0.7
210169,2102570,210266,4,87,99.9,0,11816,94.2,158551,167396,0.7
210170,2102580,210267,4,87,99.9,0,10917,94.2,158565,167478,0.7
210171,2102590,210268,4,87,99.9,0,9939,94.2,158563,167487,0.7
210172,2102600,210269,4,87,99.9,0,9042,94.2,158577,167493,0.7
210173,2102610,210270,4,87,99.9,0,8146,94.2,158567,167436,0.7
210174,2102620,210271,4,87,99.9,0,7331,94.2,158521,167360,0.7
210175,2102630,210272,4,87,99.9,0,6517,94.2,158453,167221,0.7
210176,2102640,210273,4,87,99.9,0,5786,94.2,158385,167046,0.7
210177,2102650,210274,4,87,99.9,0,5297,94.2,158304,166892,0.7
210178,2102660,210275,4,87,99.9,0,5132,94.2,158233,166745,0.7
210179,2102670,210276,4,87,99.9,0,5370,94.2,158166,166620,0.7
210180,2102680,210277,4,87,99.9,0,6093,94.2,158108,166525,0.7
210181,2102690,210278,4,87,99.9,0,7379,94.2,158090,166444,0.7
210182,2102700,210279,4,87,99.9,0,9311,94.2,158065,166406,0.7
210183,2102710,210280,4,87,99.9,0,11807,94.2,158026,166358,0.7
210184,2102720,210281,4,87,99.9,0,14950,94.2,158017,166309,0.7
210185,2102730,210282,4,87,99.9,0,18580,94.2,158005,166257,0.7
210186,2102740,210283,4,87,99.9,0,22540,94.2,157970,166270,0.7
210187,2102750,210284,4,87,99.9,0,26751,94.2,157973,166229,0.7
210188,2102760,210285,4,87,99.9,0,31138,94.2,157970,166216,0.7
210189,2102770,210286,4,87,99.9,0,35459,94.2,157939,166178,0.7
210190,2102780,210287,4,87,99.9,0,39631,94.2,157951,166148,0.7
210191,2102790,210288,4,87,99.9,0,43568,94.2,157945,166120,0.7
210192,2102800,210289,4,87,99.9,0,47184,94.2,157943,166135,0.7
210193,2102810,210290,4,87,99.9,0,50311,94.2,157936,166122,0.7
210194,2102820,210291,4,87,99.9,0,53030,94.2,157921,166125,0.7
210195,2102830,210292,4,87,99.9,0,55092,94.2,157959,166139,0.7
210196,2102840,210293,4,87,99.9,0,56743,94.2,157955,166181,0.7
210197,2102850,210294,4,87,99.9,0,57982,94.2,157982,166215,0.7
210198,2102860,210295,4,87,99.9,0,58646,94.2,157998,166290,0.7
210199,2102870,210296,4,87,99.9,0,58980,94.2,158029,166319,0.7
210200,2102880,210297,4,87,99.9,0,58904,94.2,158059,166365,0.7
210201,2102890,210298,4,87,99.9,8,58499,94.2,158057,166362,0.7
210202,2102900,210299,4,87,99.9,0,57684,94.2,158111,166427,0.7
210203,2102910,210300,4,87,99.9,0,56624,94.2,158083,166423,0.7
210204,2102920,210301,4,87,99.9,0,55400,94.2,158071,166428,0.7
210205,2102930,210302,4,87,99.9,0,53930,94.2,158094,166439,0.7
210206,2102940,210303,4,87,99.9,0,52296,94.2,158098,166449,0.7
210207,2102950,210304,4,87,99.9,0,50579,94.2,158113,166490,0.7
210208,2102960,210305,4,87,99.9,0,48779,94.2,158118,166513,0.7
210209,2102970,210306,4,87,99.9,0,47142,94.2,158136,166516,0.7
210210,2102980,210307,4,87,99.9,0,45504,94.2,158127,166567,0.7
210211,2102990,210308,4,87,99.9,0,43863,94.2,158160,166582,0.7
210212,2103000,210309,4,87,99.9,0,42468,94.2,158173,166630,0.7
210213,2103010,210310,4,87,99.9,0,41070,94.2,158200,166651,0.7
210214,2103020,210311,4,87,99.9,0,39918,94.2,158191,166674,0.7
210215,2103030,210312,4,87,99.9,0,38764,94.2,158217,166714,0.7
210216,2103040,210313,4,87,99.9,0,37689,94.2,158250,166764,0.7
210217,2103050,210314,4,87,99.9,0,36611,94.2,158265,166800,0.7
210218,2103060,210315,4,87,99.9,0,35613,94.2,158274,166824,0.7
210219,2103070,210316,4,87,99.9,0,34612,94.2,158248,166837,0.7
210220,2103080,210317,4,87,99.9,0,33607,94.2,158289,166891,0.7
210221,2103090,210318,4,87,99.9,0,32514,94.2,158350,166932,0.7
210222,2103100,210319,4,87,99.9,0,31417,94.2,158357,166958,0.7
210223,2103110,210320,4,87,99.9,0,30232,94.2,158382,166987,0.7
210224,2103120,210321,4,87,99.9,0,28957,94.2,158370,166989,0.7
210225,2103130,210322,4,87,99.9,0,27594,94.2,158391,167069,0.7
210226,2103140,210323,4,87,99.9,0,26312,94.2,158370,167054,0.7
210227,2103150,210324,4,87,99.9,0,25027,94.2,158413,167094,0.7
210228,2103160,210325,4,87,99.9,0,23653,94.2,158425,167094,0.7
210229,2103170,210326,4,87,99.9,0,22276,94.2,158440,167135,0.7
210230,2103180,210327,4,87,99.9,0,20982,94.2,158448,167189,0.7
210231,2103190,210328,4,87,99.9,0,19686,94.2,158453,167207,0.7
210232,2103200,210329,4,87,99.9,0,18560,94.2,158506,167286,0.7
210233,2103210,210330,4,87,99.9,0,17432,94.2,158499,167318,0.7
210234,2103220,210331,4,87,99.9,0,16132,94.2,158504,167350,0.7
210235,2103230,210332,4,87,99.9,0,15003,94.2,158552,167362,0.7
210236,2103240,210333,4,87,99.9,0,13873,94.2,158563,167378,0.7
210237,2103250,210334,4,87,99.9,0,12829,94.2,158561,167442,0.7
210238,2103260,210335,4,87,99.9,0,11785,94.2,158567,167466,0.7
210239,2103270,210336,4,87,99.9,0,10656,94.2,158586,167470,0.7
210240,2103280,210337,4,87,99.9,0,9527,94.2,158526,167516,0.7
210241,2103290,210338,4,87,99.9,0,8571,94.2,158618,167498,0.7
210242,2103300,210339,4,87,99.9,0,7616,94.2,158568,167424,0.7
210243,2103310,210340,4,87,99.9,0,6662,94.2,158525,167325,0.7
210244,2103320,210341,4,87,99.9,0,5710,94.2,158409,167157,0.7
210245,2103330,210342,4,87,99.9,0,4931,94.2,158376,167040,0.7
210246,2103340,210343,4,87,99.9,0,4497,94.2,158301,166852,0.7
210247,2103350,210344,4,87,99.9,0,4495,94.2,158238,166717,0.7
210248,2103360,210345,4,87,99.9,0,4923,94.2,158140,166597,0.7
210249,2103370,210346,4,87,99.9,0,5868,94.2,158100,166499,0.7
210250,2103380,210347,4,87,99.9,0,7413,94.2,157980,166442,0.7
210251,2103390,210348,4,87,99.8,0,9733,94.2,158031,166361,0.7
210252,2103400,210349,4,87,99.8,0,12655,94.2,158024,166335,0.7
210253,2103410,210350,4,87,99.8,0,16181,94.2,157999,166272,0.7
210254,2103420,210351,4,87,99.8,0,20141,94.2,157985,166257,0.7
210255,2103430,210352,4,87,99.8,0,24454,94.2,157958,166235,0.7
210256,2103440,210353,4,87,99.8,0,29124,94.2,157956,166192,0.7
210257,2103450,210354,4,87,99.8,0,33810,94.2,157956,166175,0.7
210258,2103460,210355,4,87,99.8,0,38425,94.2,157957,166144,0.7
210259,2103470,210356,4,87,99.8,0,42966,94.2,157933,166127,0.7
210260,2103480,210357,4,87,99.8,0,47165,94.2,157787,166120,0.7
210261,2103490,210358,4,87,99.8,0,50933,94.2,157913,166080,0.7
210262,2103500,210359,4,87,99.8,0,54264,94.2,157921,166093,0.7
210263,2103510,210360,4,87,99.8,0,57157,94.2,157913,166069,0.7
210264,2103520,210361,4,87,99.8,0,59436,94.2,157928,166113,0.7
210265,2103530,210362,4,87,99.8,0,61188,94.2,157931,166153,0.7
210266,2103540,210363,4,87,99.8,0,62258,94.2,157972,166196,0.7
210267,2103550,210364,4,87,99.8,0,62258,94.2,157996,166220,0.7
210268,2103560,210365,4,87,99.8,0,62258,94.2,158016,166289,0.7
210269,2103570,210366,4,87,99.8,0,62174,94.2,158029,166320,0.7
210270,2103580,210367,4,87,99.8,8,61755,94.2,158064,166336,0.7
210271,2103590,210368,4,87,99.8,0,60917,94.2,158102,166394,0.7
210272,2103600,210369,4,87,99.8,0,59829,94.2,158088,166405,0.7
210273,2103610,210370,4,87,99.8,0,58407,94.2,158092,166426,0.7
210274,2103620,210371,4,87,99.8,0,56818,94.2,158080,166439,0.7
210275,2103630,210372,4,87,99.8,0,54979,94.2,158111,166444,0.7
210276,2103640,210373,4,87,99.8,0,53224,94.2,158103,166481,0.7
210277,2103650,210374,4,87,99.8,0,51301,94.2,158099,166486,0.7
210278,2103660,210375,4,87,99.8,0,49462,94.2,158112,166512,0.7
210279,2103670,210376,4,87,99.8,0,47705,94.2,158153,166532,0.7
210280,2103680,210377,4,87,99.8,0,46032,94.2,158158,166578,0.7
210281,2103690,210378,4,87,99.8,0,44356,94.2,158168,166616,0.7
210282,2103700,210379,4,87,99.8,0,42846,94.2,158186,166636,0.7
210283,2103710,210380,4,87,99.8,0,41418,94.2,158198,166683,0.7
210284,2103720,210381,4,87,99.8,0,40157,94.2,158220,166739,0.7
210285,2103730,210382,4,87,99.8,0,38977,94.2,158243,166749,0.7
210286,2103740,210383,4,87,99.8,0,37795,94.2,158263,166774,0.7
210287,2103750,210384,4,87,99.8,0,36608,94.2,158262,166800,0.7
210288,2103760,210385,4,87,99.8,0,35418,94.2,158284,166828,0.7
210289,2103770,210386,4,87,99.8,0,34223,94.2,158294,166860,0.7
210290,2103780,210387,4,87,99.8,0,33196,94.2,158346,166900,0.7
210291,2103790,210388,4,87,99.8,0,32079,94.2,158338,166937,0.7
210292,2103800,210389,4,87,99.8,0,30871,94.2,158339,166950,0.7
210293,2103810,210390,4,87,99.8,0,29659,94.2,158342,166999,0.7
210294,2103820,210391,4,87,99.8,0,28444,94.2,158386,167018,0.7
210295,2103830,210392,4,87,99.8,0,27137,94.2,158403,167071,0.7
210296,2103840,210393,4,87,99.8,0,25828,94.2,158416,167072,0.7
210297,2103850,210394,4,87,99.8,0,24514,94.2,158437,167081,0.7
210298,2103860,210395,4,87,99.8,0,23285,94.2,158447,167144,0.7
210299,2103870,210396,4,87,99.8,0,21967,94.2,158460,167172,0.7
210300,2103880,210397,4,87,99.8,0,20733,94.2,158467,167207,0.7
210301,2103890,210398,4,87,99.8,0,19497,94.2,158503,167227,0.7
210302,2103900,210399,4,87,99.8,0,18260,94.2,158522,167287,0.7
210303,2103910,210400,4,87,99.8,0,17022,94.2,158507,167276,0.7
210304,2103920,210401,4,87,99.8,0,15783,94.2,158540,167318,0.7
210305,2103930,210402,4,87,99.8,0,14631,94.2,158543,167351,0.7
210306,2103940,210403,4,87,99.8,0,13566,94.2,158568,167395,0.7
210307,2103950,210404,4,87,99.8,0,12413,94.2,158587,167444,0.7
210308,2103960,210405,4,87,99.8,0,11348,94.2,158612,167452,0.7
210309,2103970,210406,4,87,99.8,0,10371,94.2,158609,167500,0.7
210310,2103980,210407,4,87,99.8,0,9395,94.2,158607,167481,0.7
210311,2103990,210408,4,87,99.8,0,8420,94.2,158614,167470,0.7
210312,2104000,210409,4,87,99.8,0,7446,94.2,158585,167421,0.7
210313,2104010,210410,4,87,99.8,0,6473,94.2,158495,167238,0.7
210314,2104020,210411,4,87,99.8,0,5676,94.2,158408,167097,0.7
210315,2104030,210412,4,87,99.8,0,5057,94.2,158342,166923,0.7
210316,2104040,210413,4,87,99.8,0,4702,94.2,158270,166787,0.7
210317,2104050,210414,4,87,99.8,0,4787,94.2,158214,166647,0.7
210318,2104060,210415,4,87,99.8,0,5399,94.2,158153,166509,0.7
210319,2104070,210416,4,87,99.8,0,6626,94.2,158095,166453,0.7
210320,2104080,210417,4,87,99.8,0,8554,94.2,158066,166378,0.7
210321,2104090,210418,4,87,99.8,0,11185,94.2,158053,166300,0.7
210322,2104100,210419,4,87,99.8,0,14432,94.2,158008,166240,0.7
210323,2104110,210420,4,87,99.8,0,18385,94.2,157957,166206,0.7
210324,2104120,210421,4,87,99.8,0,22696,94.2,157959,166160,0.7
210325,2104130,210422,4,87,99.8,0,27458,94.2,157945,166126,0.7
210326,2104140,210423,4,87,99.8,0,32412,94.2,157937,166097,0.7
210327,2104150,210424,4,87,99.8,0,37473,94.2,157940,166072,0.7
210328,2104160,210425,4,87,99.8,0,42371,94.2,157907,166048,0.7
210329,2104170,210426,4,87,99.8,0,47011,94.2,157900,166005,0.7
210330,2104180,210427,4,87,99.8,0,51478,94.2,157912,166024,0.7
210331,2104190,210428,4,87,99.8,0,55321,94.2,157895,165980,0.7
210332,2104200,210429,4,87,99.8,0,58717,94.2,157905,165956,0.7
210333,2104210,210430,4,87,99.8,0,61573,94.2,157891,165973,0.7
210334,2104220,210431,4,87,99.8,0,62258,94.2,157893,165989,0.7
210335,2104230,210432,4,87,99.8,0,62258,94.2,157919,166029,0.7
210336,2104240,210433,4,87,99.8,0,62258,94.2,157937,166051,0.7
210337,2104250,210434,4,87,99.8,0,62258,94.2,157953,166097,0.7
210338,2104260,210435,4,87,99.8,0,62258,94.2,157976,166119,0.7
210339,2104270,210436,4,87,99.8,0,62258,94.2,158003,166170,0.7
210340,2104280,210437,4,87,99.8,8,61960,94.2,158013,166113,0.7
210341,2104290,210438,4,87,99.8,0,61366,94.2,158001,166206,0.7
210342,2104300,210439,4,87,99.8,0,60401,94.2,158033,166217,0.7
210343,2104310,210440,4,87,99.8,0,59289,94.2,158036,166243,0.7
210344,2104320,210441,4,87,99.8,0,58029,94.2,158037,166254,0.7
210345,2104330,210442,4,87,99.8,0,56622,94.2,158022,166273,0.7
210346,2104340,210443,4,87,99.8,0,55141,94.2,158047,166289,0.7
210347,2104350,210444,4,87,99.8,0,53661,94.2,158059,166289,0.7
210348,2104360,210445,4,87,99.8,0,52107,94.2,158056,166319,0.7
210349,2104370,210446,4,87,99.8,0,50627,94.2,158073,166367,0.7
210350,2104380,210447,4,87,99.8,0,49221,94.2,158069,166281,0.7
210351,2104390,210448,4,87,99.8,0,47889,94.2,158085,166397,0.7
210352,2104400,210449,4,87,99.8,0,46630,94.2,158109,166443,0.7
210353,2104410,210450,4,87,99.8,0,45445,94.2,158120,166454,0.7
210354,2104420,210451,4,87,99.8,0,44334,94.2,158138,166487,0.7
210355,2104430,210452,4,87,99.8,0,43370,94.2,158144,166518,0.7
210356,2104440,210453,4,87,99.8,0,42481,94.2,158182,166557,0.7
210357,2104450,210454,4,87,99.8,0,41589,94.2,158176,166566,0.7
210358,2104460,210455,4,87,99.8,0,40696,94.2,158197,166597,0.7
210359,2104470,210456,4,87,99.8,0,39800,94.2,158211,166659,0.7
210360,2104480,210457,4,87,99.8,0,38826,94.2,158229,166684,0.7
210361,2104490,210458,4,87,99.8,0,37926,94.2,158282,166716,0.7
210362,2104500,210459,4,87,99.8,0,36870,94.2,158282,166737,0.7
210363,2104510,210460,4,87,99.8,0,35888,94.2,158263,166772,0.7
210364,2104520,210461,4,87,99.8,0,34826,94.2,158306,166811,0.7
210365,2104530,210462,4,87,99.8,0,33684,94.2,158294,166813,0.7
210366,2104540,210463,4,87,99.8,0,32384,94.2,158312,166880,0.7
210367,2104550,210464,4,87,99.8,0,31156,94.2,158327,166865,0.7
210368,2104560,210465,4,87,99.8,0,30001,94.2,158338,166900,0.7
210369,2104570,210466,4,87,99.8,0,28841,94.2,158381,166953,0.7
210370,2104580,210467,4,87,99.8,0,27678,94.2,158357,166965,0.7
210371,2104590,210468,4,87,99.8,0,26434,94.2,158403,167017,0.7
210372,2104600,210469,4,87,99.8,0,25265,94.2,158427,167038,0.7
210373,2104610,210470,4,87,99.8,0,24092,94.2,158412,167066,0.7
210374,2104620,210471,4,87,99.8,0,22995,94.2,158407,167094,0.7
210375,2104630,210472,4,87,99.8,0,21895,94.2,158471,167141,0.7
210376,2104640,210473,4,87,99.8,0,20793,94.2,158472,167179,0.7
210377,2104650,210474,4,87,99.8,0,19768,94.2,158487,167195,0.7
210378,2104660,210475,4,87,99.8,0,18741,94.2,158488,167209,0.7
210379,2104670,210476,4,87,99.8,0,17713,94.2,158505,167213,0.7
210380,2104680,210477,4,87,99.8,0,16762,94.2,158512,167236,0.7
210381,2104690,210478,4,87,99.8,0,15889,94.2,158485,167152,0.7
210382,2104700,210479,4,87,99.8,0,14937,94.2,158415,167041,0.7
210383,2104710,210480,4,87,99.8,0,14219,94.2,158334,166881,0.7
210384,2104720,210481,4,87,99.8,0,13579,94.2,158227,166728,0.7
210385,2104730,210482,4,87,99.8,0,13174,94.2,158164,166559,0.7
210386,2104740,210483,4,87,99.8,0,13005,94.2,158096,166387,0.7
210387,2104750,210484,4,87,99.8,0,13384,94.2,158029,166260,0.7
210388,2104760,210485,4,87,99.8,0,14312,94.2,157989,166174,0.7
210389,2104770,210486,4,87,99.8,0,15790,94.2,157924,166087,0.7
210390,2104780,210487,4,87,99.8,0,17977,94.2,157908,166020,0.7
210391,2104790,210488,4,87,99.8,0,20717,94.2,157871,165983,0.7
210392,2104800,210489,4,87,99.8,0,24013,94.2,157888,165952,0.7
210393,2104810,210490,4,87,99.8,0,27870,94.2,157824,165875,0.7
210394,2104820,210491,4,87,99.8,0,32055,94.2,157831,165850,0.7
210395,2104830,210492,4,87,99.8,0,36493,94.2,157822,165814,0.7
210396,2104840,210493,4,87,99.8,0,40945,94.2,157800,165776,0.7
210397,2104850,210494,4,87,99.8,0,45407,94.2,157782,165741,0.7
210398,2104860,210495,4,87,99.8,0,49795,94.2,157769,165723,0.7
210399,2104870,210496,4,87,99.8,0,53787,94.2,157735,165670,0.7
210400,2104880,210497,4,87,99.8,0,57300,94.2,157702,165637,0.7
210401,2104890,210498,4,87,99.8,0,60490,94.2,157722,165639,0.7
210402,2104900,210499,4,87,99.8,0,62258,94.2,157725,165638,0.7
210403,2104910,210500,4,87,99.8,0,62258,94.2,157729,165626,0.7
210404,2104920,210501,4,87,99.8,0,62258,94.2,157730,165649,0.7
210405,2104930,210502,4,87,99.8,0,62258,94.2,157756,165695,0.7
210406,2104940,210503,4,87,99.8,0,62194,94.2,157776,165741,0.7
210407,2104950,210504,4,87,99.8,0,62007,94.2,157801,165775,0.7
210408,2104960,210505,4,87,99.8,0,61762,94.2,157837,165849,0.7
210409,2104970,210506,4,87,99.8,8,61576,94.2,157815,165846,0.7
210410,2104980,210507,4,87,99.8,0,61081,94.2,157852,165897,0.7
210411,2104990,210508,4,87,99.8,0,60400,94.2,157870,165889,0.7
210412,2105000,210509,4,87,99.8,0,59535,94.2,157871,165929,0.7
210413,2105010,210510,4,87,99.8,0,58485,94.2,157887,165953,0.7
210414,2105020,210511,4,87,99.8,0,57311,94.2,157882,165949,0.7
210415,2105030,210512,4,87,99.8,0,56077,94.2,157897,165970,0.7
210416,2105040,210513,4,87,99.8,0,54782,94.2,157899,165992,0.7
210417,2105050,210514,4,87,99.8,0,53425,94.2,157888,165992,0.7
210418,2105060,210515,4,87,99.8,0,52069,94.2,157910,166017,0.7
210419,2105070,210516,4,87,99.8,0,50774,94.2,157932,166076,0.7
210420,2105080,210517,4,87,99.8,0,49542,94.2,157936,166096,0.7
210421,2105090,210518,4,87,99.8,0,48433,94.2,157982,166128,0.7
210422,2105100,210519,4,87,99.8,0,47324,94.2,157982,166180,0.7
210423,2105110,210520,4,87,99.8,0,46276,94.2,157976,166188,0.7
210424,2105120,210521,4,87,99.8,0,45289,94.2,158012,166211,0.7
210425,2105130,210522,4,87,99.8,0,44363,94.2,158010,166259,0.7
210426,2105140,210523,4,87,99.8,0,43436,94.2,158013,166283,0.7
210427,2105150,210524,4,87,99.8,0,42507,94.2,158030,166318,0.7
210428,2105160,210525,4,87,99.8,0,41577,94.2,158058,166361,0.7
210429,2105170,210526,4,87,99.8,0,40644,94.2,158075,166379,0.7
210430,2105180,210527,4,87,99.8,0,39709,94.2,158091,166434,0.7
210431,2105190,210528,4,87,99.8,0,38771,94.2,158112,166440,0.7
210432,2105200,210529,4,87,99.8,0,37768,94.2,158130,166504,0.7
210433,2105210,210530,4,87,99.8,0,36699,94.2,158142,166533,0.7
210434,2105220,210531,4,87,99.8,0,35689,94.2,158158,166550,0.7
210435,2105230,210532,4,87,99.8,0,34613,94.2,158185,166587,0.7
210436,2105240,210533,4,87,99.8,0,33532,94.2,158189,166582,0.7
210437,2105250,210534,4,87,99.8,0,32448,94.2,158203,166661,0.7
210438,2105260,210535,4,87,99.8,0,31295,94.2,158219,166688,0.7
210439,2105270,210536,4,87,99.8,0,30138,94.2,158224,166732,0.7
210440,2105280,210537,4,87,99.8,0,28977,94.2,158248,166755,0.7
210441,2105290,210538,4,87,99.8,0,27876,94.2,158306,166807,0.7
210442,2105300,210539,4,87,99.8,0,26773,94.2,158270,166814,0.7
210443,2105310,210540,4,87,99.8,0,25666,94.2,158300,166854,0.7
210444,2105320,210541,4,87,99.8,0,24621,94.2,158332,166878,0.7
210445,2105330,210542,4,87,99.8,0,23573,94.2,158323,166913,0.7
210446,2105340,210543,4,87,99.8,0,22524,94.2,158362,166947,0.7
210447,2105350,210544,4,87,99.8,0,21602,94.2,158354,166988,0.7
210448,2105360,210545,4,87,99.8,0,20678,94.2,158379,167017,0.7
210449,2105370,210546,4,87,99.8,0,19688,94.2,158388,167049,0.7
210450,2105380,210547,4,87,99.8,0,18827,94.2,158385,167010,0.7
210451,2105390,210548,4,86,99.8,0,18030,94.2,158352,166966,0.7
210452,2105400,210549,4,86,99.8,0,17232,94.2,158265,166839,0.7
210453,2105410,210550,4,86,99.8,0,16499,94.2,158205,166687,0.7
210454,2105420,210551,4,86,99.8,0,15831,94.2,158111,166495,0.7
210455,2105430,210552,4,86,99.8,0,15423,94.2,158043,166369,0.7
210456,2105440,210553,4,86,99.8,0,15343,94.2,157965,166204,0.7
210457,2105450,210554,4,86,99.8,0,15591,94.2,157903,166101,0.7
210458,2105460,210555,4,86,99.8,0,16297,94.2,157885,165974,0.7
210459,2105470,210556,4,86,99.8,0,17529,94.2,157880,165959,0.7
210460,2105480,210557,4,86,99.8,0,19288,94.2,157842,165877,0.7
210461,2105490,210558,4,86,99.8,0,21576,94.2,157821,165838,0.7
210462,2105500,210559,4,86,99.8,0,24263,94.2,157792,165812,0.7
210463,2105510,210560,4,86,99.8,0,27353,94.2,157756,165760,0.7
210464,2105520,210561,4,86,99.8,0,30716,94.2,157758,165666,0.7
210465,2105530,210562,4,86,99.8,0,34225,94.2,157733,165683,0.7
210466,2105540,210563,4,86,99.8,0,37879,94.2,157718,165661,0.7
210467,2105550,210564,4,86,99.8,0,41409,94.2,157699,165636,0.7
210468,2105560,210565,4,86,99.8,0,44814,94.2,157692,165591,0.7
210469,2105570,210566,4,86,99.8,0,48024,94.2,157693,165552,0.7
210470,2105580,210567,4,86,99.8,0,50903,94.2,157688,165562,0.7
210471,2105590,210568,4,86,99.8,0,53450,94.2,157684,165558,0.7
210472,2105600,210569,4,86,99.8,0,55662,94.2,157676,165578,0.7
210473,2105610,210570,4,86,99.8,0,57339,94.2,157680,165615,0.7
210474,2105620,210571,4,86,99.8,0,58680,94.2,157717,165625,0.7
210475,2105630,210572,4,86,99.8,0,59620,94.2,157747,165673,0.7
210476,2105640,210573,4,86,99.8,0,60157,94.2,157763,165712,0.7
210477,2105650,210574,4,86,99.8,0,60361,94.2,157785,165718,0.7
210478,2105660,210575,4,86,99.8,0,60230,94.2,157811,165780,0.7
210479,2105670,210576,4,86,99.8,8,59832,94.2,157797,165803,0.7
210480,2105680,210577,4,86,99.8,0,59101,94.2,157787,165832,0.7
210481,2105690,210578,4,86,99.8,0,58171,94.2,157822,165834,0.7
210482,2105700,210579,4,86,99.8,0,57042,94.2,157823,165851,0.7
210483,2105710,210580,4,86,99.8,0,55713,94.2,157828,165873,0.7
210484,2105720,210581,4,86,99.8,0,54319,94.2,157827,165860,0.7
210485,2105730,210582,4,86,99.8,0,52858,94.2,157838,165910,0.7
210486,2105740,210583,4,86,99.8,0,51397,94.2,157854,165927,0.7
210487,2105750,210584,4,86,99.8,0,49936,94.2,157845,165956,0.7
210488,2105760,210585,4,86,99.8,0,48608,94.2,157858,165995,0.7
210489,2105770,210586,4,86,99.8,0,47414,94.2,157889,166018,0.7
210490,2105780,210587,4,86,99.8,0,46151,94.2,157900,166069,0.7
210491,2105790,210588,4,86,99.8,0,45021,94.2,157902,166064,0.7
210492,2105800,210589,4,86,99.8,0,43890,94.2,157936,166122,0.7
210493,2105810,210590,4,86,99.8,0,42824,94.2,157981,166137,0.7
210494,2105820,210591,4,86,99.8,0,41823,94.2,157980,166188,0.7
210495,2105830,210592,4,86,99.8,0,40821,94.2,157992,166200,0.7
210496,2105840,210593,4,86,99.8,0,39884,94.2,158000,166243,0.7
210497,2105850,210594,4,86,99.8,0,38944,94.2,158043,166280,0.7
210498,2105860,210595,4,86,99.8,0,37934,94.2,158037,166302,0.7
210499,2105870,210596,4,86,99.8,0,36921,94.2,158050,166368,0.7
210500,2105880,210597,4,86,99.8,0,35973,94.2,158078,166388,0.7
210501,2105890,210598,4,86,99.8,0,34954,94.2,158115,166437,0.7
210502,2105900,210599,4,86,99.8,0,33862,94.2,158117,166445,0.7
210503,2105910,210600,4,86,99.8,0,32698,94.2,158125,166488,0.7
210504,2105920,210601,4,86,99.8,0,31599,94.2,158140,166501,0.7
210505,2105930,210602,4,86,99.8,0,30495,94.2,158170,166560,0.7
210506,2105940,210603,4,86,99.8,0,29387,94.2,158178,166575,0.7
210507,2105950,210604,4,86,99.8,0,28206,94.2,158168,166612,0.7
210508,2105960,210605,4,86,99.8,0,27022,94.2,158183,166625,0.7
210509,2105970,210606,4,86,99.8,0,25835,94.2,158203,166670,0.7
210510,2105980,210607,4,86,99.8,0,24713,94.2,158234,166721,0.7
210511,2105990,210608,4,86,99.8,0,23589,94.2,158243,166736,0.7
210512,2106000,210609,4,86,99.8,0,22533,94.2,158269,166770,0.7
210513,2106010,210610,4,86,99.8,0,21474,94.2,158286,166830,0.7
210514,2106020,210611,4,86,99.8,0,20483,94.2,158286,166833,0.7
210515,2106030,210612,4,86,99.8,0,19560,94.2,158328,166872,0.7
210516,2106040,210613,4,86,99.8,0,18567,94.2,158325,166907,0.7
210517,2106050,210614,4,86,99.8,0,17572,94.2,158351,166944,0.7
210518,2106060,210615,4,86,99.8,0,16646,94.2,158354,166969,0.7
210519,2106070,210616,4,86,99.8,0,15720,94.2,158345,166968,0.7
210520,2106080,210617,4,86,99.8,0,14793,94.2,158332,166930,0.7
210521,2106090,210618,4,86,99.8,0,13936,94.2,158303,166840,0.7
210522,2106100,210619,4,86,99.8,0,13149,94.2,158235,166686,0.7
210523,2106110,210620,4,86,99.8,0,12432,94.2,158150,166551,0.7
210524,2106120,210621,4,86,99.8,0,11926,94.2,158081,166374,0.7
210525,2106130,210622,4,86,99.8,0,11632,94.2,158011,166236,0.7
210526,2106140,210623,4,86,99.8,0,11689,94.2,157931,166090,0.7
210527,2106150,210624,4,86,99.8,0,12240,94.2,157870,165970,0.7
210528,2106160,210625,4,86,99.8,0,13214,94.2,157873,165889,0.7
210529,2106170,210626,4,86,99.8,0,14824,94.2,157808,165882,0.7
210530,2106180,210627,4,86,99.8,0,16999,94.2,157798,165802,0.7
210531,2106190,210628,4,86,99.8,0,19671,94.2,157754,165754,0.7
210532,2106200,210629,4,86,99.8,0,22773,94.2,157747,165716,0.7
210533,2106210,210630,4,86,99.8,0,26236,94.2,157718,165683,0.7
210534,2106220,210631,4,86,99.8,0,29922,94.2,157713,165674,0.7
210535,2106230,210632,4,86,99.8,0,33836,94.2,157716,165630,0.7
210536,2106240,210633,4,86,99.8,0,37692,94.2,157702,165645,0.7
210537,2106250,210634,4,86,99.8,0,41487,94.2,157691,165598,0.7
210538,2106260,210635,4,86,99.8,0,45003,94.2,157695,165580,0.7
210539,2106270,210636,4,86,99.8,0,48166,94.2,157682,165572,0.7
210540,2106280,210637,4,86,99.8,0,50902,94.2,157675,165584,0.7
210541,2106290,210638,4,86,99.8,0,53279,94.2,157701,165563,0.7
210542,2106300,210639,4,86,99.8,0,55226,94.2,157706,165622,0.7
210543,2106310,210640,4,86,99.8,0,56741,94.2,157736,165670,0.7
210544,2106320,210641,4,86,99.8,0,57824,94.2,157745,165695,0.7
210545,2106330,210642,4,86,99.8,0,58476,94.2,157789,165751,0.7
210546,2106340,210643,4,86,99.8,0,58696,94.2,157787,165780,0.7
210547,2106350,210644,4,86,99.8,0,58486,94.2,157796,165801,0.7
210548,2106360,210645,4,86,99.8,8,57989,94.2,157837,165851,0.7
210549,2106370,210646,4,86,99.8,0,57133,94.2,157809,165841,0.7
210550,2106380,210647,4,86,99.8,0,56063,94.2,157808,165838,0.7
210551,2106390,210648,4,86,99.8,0,54778,94.2,157816,165861,0.7
210552,2106400,210649,4,86,99.8,0,53350,94.2,157822,165887,0.7
210553,2106410,210650,4,86,99.8,0,51779,94.2,157836,165880,0.7
210554,2106420,210651,4,86,99.8,0,50279,94.2,157845,165919,0.7
210555,2106430,210652,4,86,99.8,0,48707,94.2,157878,165964,0.7
210556,2106440,210653,4,86,99.8,0,47206,94.2,157881,165967,0.7
210557,2106450,210654,4,86,99.8,0,45848,94.2,157899,166005,0.7
210558,2106460,210655,4,86,99.8,0,44632,94.2,157921,166042,0.7
210559,2106470,210656,4,86,99.8,0,43415,94.2,157915,166078,0.7
210560,2106480,210657,4,86,99.8,0,42268,94.2,157924,166113,0.7
210561,2106490,210658,4,86,99.8,0,41192,94.2,157968,166137,0.7
210562,2106500,210659,4,86,99.8,0,40186,94.2,157987,166190,0.7
210563,2106510,210660,4,86,99.8,0,39250,94.2,157998,166217,0.7
210564,2106520,210661,4,86,99.8,0,38312,94.2,158023,166241,0.7
210565,2106530,210662,4,86,99.8,0,37371,94.2,158044,166263,0.7
210566,2106540,210663,4,86,99.8,0,36427,94.2,158035,166303,0.7
210567,2106550,210664,4,86,99.8,0,35553,94.2,158058,166322,0.7
210568,2106560,210665,4,86,99.8,0,34530,94.2,158079,166353,0.7
210569,2106570,210666,4,86,99.8,0,33577,94.2,158137,166445,0.7
210570,2106580,210667,4,86,99.8,0,32398,94.2,158118,166477,0.7
210571,2106590,210668,4,86,99.8,0,31289,94.2,158170,166513,0.7
210572,2106600,210669,4,86,99.8,0,30176,94.2,158167,166493,0.7
210573,2106610,210670,4,86,99.8,0,28985,94.2,158166,166543,0.7
210574,2106620,210671,4,86,99.8,0,27716,94.2,158179,166579,0.7
210575,2106630,210672,4,86,99.8,0,26443,94.2,158194,166593,0.7
210576,2106640,210673,4,86,99.8,0,25093,94.2,158225,166622,0.7
210577,2106650,210674,4,86,99.8,0,23888,94.2,158205,166652,0.7
210578,2106660,210675,4,86,99.8,0,22605,94.2,158254,166693,0.7
210579,2106670,210676,4,86,99.8,0,21396,94.2,158253,166719,0.7
210580,2106680,210677,4,86,99.8,0,20333,94.2,158284,166752,0.7
210581,2106690,210678,4,86,99.8,0,19195,93.8,158316,166796,0.7
210582,2106700,210679,4,86,99.8,0,18055,93.8,158311,166855,0.7
210583,2106710,210680,4,86,99.8,0,16989,93.8,158337,166871,0.7
210584,2106720,210681,4,86,99.8,0,15997,93.8,158367,166911,0.7
210585,2106730,210682,4,86,99.8,0,15004,93.8,158384,166952,0.7
210586,2106740,210683,4,86,99.8,0,14087,93.8,158421,167000,0.7
210587,2106750,210684,4,86,99.8,0,13169,93.8,158420,167025,0.7
210588,2106760,210685,4,86,99.8,0,12252,93.8,158415,167035,0.7
210589,2106770,210686,4,86,99.8,0,11334,93.8,158433,167033,0.7
210590,2106780,210687,4,86,99.8,0,10417,93.8,158397,166977,0.7
210591,2106790,210688,4,86,99.8,0,9576,93.8,158331,166862,0.7
210592,2106800,210689,4,86,99.8,0,8660,93.8,158253,166732,0.7
210593,2106810,210690,4,86,99.8,0,7896,93.8,158175,166550,0.7
210594,2106820,210691,4,86,99.8,0,7435,93.8,158100,166388,0.7
210595,2106830,210692,4,86,99.8,0,7201,93.8,158001,166219,0.7
210596,2106840,210693,4,86,99.8,0,7497,93.8,157967,166089,0.7
210597,2106850,210694,4,86,99.8,0,8170,93.8,157904,165987,0.7
210598,2106860,210695,4,86,99.8,0,9447,93.8,157849,165910,0.7
210599,2106870,210696,4,86,99.8,0,11404,93.8,157841,165841,0.7
210600,2106880,210697,4,86,99.8,0,13967,93.8,157814,165792,0.7
210601,2106890,210698,4,86,99.8,0,17137,93.8,157805,165758,0.7
210602,2106900,210699,4,86,99.8,0,20841,93.8,157782,165703,0.7
210603,2106910,210700,4,86,99.8,0,24932,93.8,157768,165711,0.7
210604,2106920,210701,4,86,99.8,0,29262,93.8,157755,165665,0.7
210605,2106930,210702,4,86,99.8,0,33607,93.8,157730,165640,0.7
210606,2106940,210703,4,86,99.8,0,37967,93.8,157737,165617,0.7
210607,2106950,210704,4,86,99.8,0,42186,93.8,157720,165579,0.7
210608,2106960,210705,4,86,99.8,0,46183,93.8,157707,165542,0.7
210609,2106970,210706,4,86,99.8,0,49725,93.8,157694,165523,0.7
210610,2106980,210707,4,86,99.8,0,52808,93.8,157718,165521,0.7
210611,2106990,210708,4,86,99.8,0,55353,93.8,157696,165537,0.7
210612,2107000,210709,4,86,99.8,0,57512,93.8,157694,165542,0.7
210613,2107010,210710,4,86,99.8,0,59209,93.8,157719,165597,0.7
210614,2107020,210711,4,86,99.8,0,60365,93.8,157720,165619,0.7
210615,2107030,210712,4,86,99.8,0,61136,93.8,157775,165645,0.7
210616,2107040,210713,4,86,99.8,0,61445,93.8,157780,165690,0.7
210617,2107050,210714,4,86,99.8,0,61369,93.8,157788,165719,0.7
210618,2107060,210715,4,86,99.8,8,60986,93.8,157803,165761,0.7
210619,2107070,210716,4,86,99.8,0,60297,93.8,157827,165767,0.7
210620,2107080,210717,4,86,99.8,0,59378,93.8,157837,165796,0.7
210621,2107090,210718,4,86,99.8,0,58307,93.8,157819,165797,0.7
210622,2107100,210719,4,86,99.8,0,57007,93.8,157863,165826,0.7
210623,2107110,210720,4,86,99.8,0,55554,93.8,157861,165833,0.7
210624,2107120,210721,4,86,99.8,0,54026,93.8,157847,165850,0.7
210625,2107130,210722,4,86,99.8,0,52420,93.8,157889,165855,0.7
210626,2107140,210723,4,86,99.8,0,50892,93.8,157870,165879,0.7
210627,2107150,210724,4,86,99.8,0,49440,93.8,157891,165901,0.7
210628,2107160,210725,4,86,99.8,0,48142,93.8,157898,165946,0.7
210629,2107170,210726,4,86,99.8,0,46766,93.8,157889,165959,0.7
210630,2107180,210727,4,86,99.8,0,45620,93.8,157952,166007,0.7
210631,2107190,210728,4,86,99.8,0,44394,93.8,157937,166045,0.7
210632,2107200,210729,4,86,99.8,0,43322,93.8,157993,166101,0.7
210633,2107210,210730,4,86,99.8,0,42326,93.8,157985,166108,0.7
210634,2107220,210731,4,86,99.8,0,41327,93.8,157999,166135,0.7
210635,2107230,210732,4,86,99.8,0,40327,93.8,158026,166167,0.7
210636,2107240,210733,4,86,99.8,0,39401,93.8,158048,166220,0.7
210637,2107250,210734,4,86,99.8,0,38396,93.8,158068,166281,0.7
210638,2107260,210735,4,86,99.8,0,37309,93.8,158067,166316,0.7
210639,2107270,210736,4,86,99.8,0,36218,93.8,158089,166321,0.7
210640,2107280,210737,4,86,99.8,0,35046,93.8,158115,166364,0.7
210641,2107290,210738,4,86,99.8,0,33869,93.8,158112,166376,0.7
210642,2107300,210739,4,86,99.8,0,32609,93.8,158135,166401,0.7
210643,2107310,210740,4,86,99.8,0,31265,93.8,158173,166469,0.7
210644,2107320,210741,4,86,99.8,0,29917,93.8,158170,166477,0.7
210645,2107330,210742,4,86,99.8,0,28484,93.8,158187,166509,0.7
210646,2107340,210743,4,86,99.8,0,27126,93.8,158169,166533,0.7
210647,2107350,210744,4,86,99.8,0,25765,93.8,158200,166544,0.7
210648,2107360,210745,4,86,99.8,0,24400,93.8,158227,166604,0.7
210649,2107370,210746,4,86,99.8,0,23032,93.8,158259,166639,0.7
210650,2107380,210747,4,86,99.8,0,21821,93.8,158251,166663,0.7
210651,2107390,210748,4,86,99.8,0,20608,93.8,158288,166687,0.7
210652,2107400,210749,4,86,99.8,0,19473,93.8,158288,166733,0.7
210653,2107410,210750,4,86,99.8,0,18416,93.8,158315,166775,0.7
210654,2107420,210751,4,86,99.8,0,17359,93.8,158325,166827,0.7
210655,2107430,210752,4,86,99.8,0,16300,93.8,158338,166841,0.7
210656,2107440,210753,4,86,99.8,0,15322,93.8,158364,166896,0.7
210657,2107450,210754,4,86,99.8,0,14423,93.8,158401,166901,0.7
210658,2107460,210755,4,86,99.8,0,13443,93.8,158380,166894,0.7
210659,2107470,210756,4,86,99.8,0,12464,93.8,158360,166859,0.7
210660,2107480,210757,4,86,99.8,0,11485,93.8,158338,166831,0.7
210661,2107490,210758,4,86,99.8,0,10506,93.8,158264,166670,0.7
210662,2107500,210759,4,86,99.8,0,9769,93.8,158168,166488,0.7
210663,2107510,210760,4,86,99.8,0,9114,93.8,158078,166319,0.7
210664,2107520,210761,4,86,99.8,0,8782,93.8,158032,166178,0.7
210665,2107530,210762,4,86,99.8,0,8773,93.8,157922,166003,0.7
210666,2107540,210763,4,86,99.8,0,9329,93.8,157864,165867,0.7
210667,2107550,210764,4,86,99.8,0,10450,93.8,157838,165780,0.7
210668,2107560,210765,4,86,99.8,0,12298,93.8,157794,165715,0.7
210669,2107570,210766,4,86,99.8,0,14712,93.8,157773,165676,0.7
210670,2107580,210767,4,86,99.8,0,17694,93.8,157751,165615,0.7
210671,2107590,210768,4,86,99.8,0,21327,93.8,157723,165574,0.7
210672,2107600,210769,4,86,99.8,0,25454,93.8,157712,165532,0.7
210673,2107610,210770,4,86,99.8,0,29918,93.8,157724,165479,0.7
210674,2107620,210771,4,86,99.8,0,34643,93.8,157690,165454,0.7
210675,2107630,210772,4,86,99.8,0,39301,93.8,157684,165429,0.7
210676,2107640,210773,4,86,99.8,0,43890,93.8,157658,165381,0.7
210677,2107650,210774,4,86,99.8,0,48321,93.8,157659,165381,0.7
210678,2107660,210775,4,86,99.8,0,52347,93.8,157645,165357,0.7
210679,2107670,210776,4,86,99.8,0,55962,93.8,157613,165345,0.7
210680,2107680,210777,4,86,99.8,0,59165,93.8,157610,165313,0.7
210681,2107690,210778,4,86,99.8,0,61789,93.8,157616,165318,0.7
210682,2107700,210779,4,86,99.8,0,62258,93.8,157613,165332,0.7
210683,2107710,210780,4,86,99.8,0,62184,93.8,157648,165381,0.7
210684,2107720,210781,4,86,99.8,0,61976,93.8,157676,165404,0.7
210685,2107730,210782,4,86,99.8,0,61847,93.8,157707,165457,0.7
210686,2107740,210783,4,86,99.8,0,61584,93.8,157694,165505,0.7
210687,2107750,210784,4,86,99.8,0,61451,93.8,157716,165523,0.7
210688,2107760,210785,4,86,99.8,8,61048,93.8,157738,165570,0.7
210689,2107770,210786,4,86,99.8,0,60444,93.8,157752,165579,0.7
210690,2107780,210787,4,86,99.8,0,59640,93.8,157756,165574,0.7
210691,2107790,210788,4,86,99.8,0,58568,93.8,157765,165601,0.7
210692,2107800,210789,4,86,99.8,0,57362,93.8,157752,165603,0.7
210693,2107810,210790,4,86,99.8,0,56090,93.8,157765,165635,0.7
210694,2107820,210791,4,86,99.8,0,54752,93.8,157793,165641,0.7
210695,2107830,210792,4,86,99.8,0,53280,93.8,157786,165687,0.7
210696,2107840,210793,4,86,99.8,0,51875,93.8,157802,165714,0.7
210697,2107850,210794,4,86,99.8,0,50538,93.8,157838,165742,0.7
210698,2107860,210795,4,86,99.8,0,49133,93.8,157850,165748,0.7
210699,2107870,210796,4,86,99.8,0,47862,93.8,157865,165784,0.7
210700,2107880,210797,4,86,99.8,0,46725,93.8,157887,165836,0.7
210701,2107890,210798,4,86,99.8,0,45655,93.8,157889,165856,0.7
210702,2107900,210799,4,86,99.8,0,44583,93.8,157910,165874,0.7
210703,2107910,210800,4,86,99.8,0,43509,93.8,157936,165930,0.7
210704,2107920,210801,4,86,99.8,0,42570,93.8,157927,165970,0.7
210705,2107930,210802,4,86,99.8,0,41629,93.8,157971,166032,0.7
210706,2107940,210803,4,86,99.8,0,40618,93.8,157987,166047,0.7
210707,2107950,210804,4,86,99.8,0,39604,93.8,158000,166069,0.7
210708,2107960,210805,4,86,99.8,0,38519,93.8,158023,166113,0.7
210709,2107970,210806,4,86,99.8,0,37499,93.8,158032,166128,0.7
210710,2107980,210807,4,86,99.8,0,36408,93.8,158038,166179,0.7
210711,2107990,210808,4,86,99.8,0,35314,93.8,158099,166229,0.7
210712,2108000,210809,4,86,99.8,0,34077,93.8,158098,166242,0.7
210713,2108010,210810,4,86,99.8,0,32836,93.8,158096,166249,0.7
210714,2108020,210811,4,86,99.8,0,31659,93.8,158092,166288,0.7
210715,2108030,210812,4,86,99.8,0,30409,93.8,158120,166331,0.7
210716,2108040,210813,4,86,99.8,0,29224,93.8,158136,166343,0.7
210717,2108050,210814,4,86,99.8,0,27965,93.8,158155,166395,0.7
210718,2108060,210815,4,86,99.8,0,26842,93.8,158187,166418,0.7
210719,2108070,210816,4,86,99.8,0,25716,93.8,158184,166437,0.7
210720,2108080,210817,4,86,99.8,0,24587,93.8,158202,166512,0.7
210721,2108090,210818,4,86,99.8,0,23525,93.8,158228,166497,0.7
210722,2108100,210819,4,86,99.8,0,22531,93.8,158236,166553,0.7
210723,2108110,210820,4,86,99.8,0,21606,93.8,158266,166586,0.7
210724,2108120,210821,4,86,99.8,0,20609,93.8,158282,166602,0.7
210725,2108130,210822,4,86,99.8,0,19680,93.8,158281,166646,0.7
210726,2108140,210823,4,86,99.8,0,18821,93.8,158310,166693,0.7
210727,2108150,210824,4,86,99.8,0,17961,93.8,158307,166716,0.7
210728,2108160,210825,4,86,99.8,0,17100,93.8,158317,166717,0.7
210729,2108170,210826,4,86,99.8,0,16238,93.8,158285,166630,0.7
210730,2108180,210827,4,86,99.8,0,15446,93.8,158238,166540,0.7
210731,2108190,210828,4,86,99.8,0,14654,93.8,158161,166341,0.7
210732,2108200,210829,4,86,99.8,0,14004,93.8,158072,166196,0.7
210733,2108210,210830,4,86,99.8,0,13565,93.8,158012,166016,0.7
210734,2108220,210831,4,86,99.8,0,13410,93.8,157910,165874,0.7
210735,2108230,210832,4,86,99.8,0,13609,93.8,157830,165715,0.7
210736,2108240,210833,4,86,99.8,0,14376,93.8,157811,165642,0.7
210737,2108250,210834,4,86,99.8,0,15640,93.8,157764,165535,0.7
210738,2108260,210835,4,86,99.8,0,17402,93.8,157731,165473,0.7
210739,2108270,210836,4,86,99.8,0,19807,93.8,157687,165399,0.7
210740,2108280,210837,4,86,99.8,0,22785,93.8,157666,165354,0.7
210741,2108290,210838,4,86,99.8,0,26197,93.8,157660,165298,0.7
210742,2108300,210839,4,86,99.8,0,29977,93.8,157608,165264,0.7
210743,2108310,210840,4,86,99.8,0,34129,93.8,157620,165208,0.7
210744,2108320,210841,4,86,99.8,0,38295,93.8,157577,165167,0.7
210745,2108330,210842,4,86,99.8,0,42544,93.8,157567,165150,0.7
210746,2108340,210843,4,86,99.8,0,46657,93.8,157557,165130,0.7
210747,2108350,210844,4,86,99.8,0,50558,93.8,157554,165067,0.7
210748,2108360,210845,4,86,99.8,0,54172,93.8,157523,165030,0.7
210749,2108370,210846,4,86,99.8,0,57423,93.8,157505,165010,0.7
210750,2108380,210847,4,86,99.8,0,60240,93.8,157512,165012,0.7
210751,2108390,210848,4,86,99.8,0,62258,93.8,157498,165012,0.7
210752,2108400,210849,4,86,99.8,0,62258,93.8,157519,165046,0.7
210753,2108410,210850,4,86,99.8,0,62258,93.8,157555,165076,0.7
210754,2108420,210851,4,86,99.8,0,62196,93.8,157560,165106,0.7
210755,2108430,210852,4,86,99.8,0,62137,93.8,157589,165180,0.7
210756,2108440,210853,4,86,99.8,0,62078,93.8,157598,165207,0.7
210757,2108450,210854,4,86,99.8,0,61958,93.8,157605,165222,0.7
210758,2108460,210855,4,86,99.8,8,61600,93.8,157635,165223,0.7
210759,2108470,210856,4,86,99.8,0,61062,93.8,157619,165252,0.7
210760,2108480,210857,4,86,99.8,0,60286,93.8,157645,165295,0.7
210761,2108490,210858,4,86,99.8,0,59391,93.8,157618,165279,0.7
210762,2108500,210859,4,86,99.8,0,58318,93.8,157642,165293,0.7
210763,2108510,210860,4,86,99.8,0,57186,93.8,157664,165293,0.7
210764,2108520,210861,4,86,99.8,0,55995,93.8,157671,165337,0.7
210765,2108530,210862,4,86,99.8,0,54686,93.8,157675,165354,0.7
210766,2108540,210863,4,86,99.8,0,53436,93.8,157697,165368,0.7
210767,2108550,210864,4,86,99.8,0,52308,93.8,157703,165393,0.7
210768,2108560,210865,4,86,99.8,0,51179,93.8,157707,165444,0.7
210769,2108570,210866,4,86,99.8,0,50049,93.8,157768,165486,0.7
210770,2108580,210867,4,86,99.8,0,48980,93.8,157782,165506,0.7
210771,2108590,210868,4,86,99.8,0,47969,93.8,157782,165550,0.7
210772,2108600,210869,4,86,99.8,0,47079,93.8,157820,165593,0.7
210773,2108610,210870,4,86,99.8,0,46127,93.8,157803,165599,0.7
210774,2108620,210871,4,86,99.8,0,45234,93.8,157833,165630,0.7
210775,2108630,210872,4,86,99.8,0,44340,93.8,157859,165661,0.7
210776,2108640,210873,4,86,99.8,0,43445,93.8,157876,165697,0.7
210777,2108650,210874,4,86,99.8,0,42547,93.8,157872,165742,0.7
210778,2108660,210875,4,86,99.8,0,41648,93.8,157888,165785,0.7
210779,2108670,210876,4,86,99.8,0,40686,93.8,157903,165785,0.7
210780,2108680,210877,4,86,99.8,0,39722,93.8,157913,165848,0.7
210781,2108690,210878,4,86,99.8,0,38694,93.8,157946,165859,0.7
210782,2108700,210879,4,86,99.8,0,37664,93.8,157945,165883,0.7
210783,2108710,210880,4,86,99.8,0,36568,93.8,157961,165928,0.7
210784,2108720,210881,4,86,99.8,0,35470,93.8,157982,165961,0.7
210785,2108730,210882,4,86,99.8,0,34428,93.8,157998,166008,0.7
210786,2108740,210883,4,86,99.8,0,33322,93.8,158024,166019,0.7
210787,2108750,210884,4,86,99.8,0,32211,93.8,158049,166034,0.7
210788,2108760,210885,4,86,99.8,0,31096,93.8,158074,166111,0.7
210789,2108770,210886,4,86,99.8,0,29977,93.8,158074,166145,0.7
210790,2108780,210887,4,86,99.8,0,28854,93.8,158094,166166,0.7
210791,2108790,210888,4,86,99.8,0,27852,93.8,158125,166177,0.7
210792,2108800,210889,4,86,99.8,0,26847,93.8,158117,166216,0.7
210793,2108810,210890,4,86,99.8,0,25839,93.8,158149,166252,0.7
210794,2108820,210891,4,86,99.8,0,24891,93.8,158152,166322,0.7
210795,2108830,210892,4,86,99.8,0,23941,93.8,158159,166329,0.7
210796,2108840,210893,4,86,99.8,0,23114,93.8,158180,166344,0.7
210797,2108850,210894,4,86,99.8,0,22223,93.8,158154,166282,0.7
210798,2108860,210895,4,86,99.8,0,21393,93.8,158127,166199,0.7
210799,2108870,210896,4,86,99.8,0,20562,93.8,158046,166047,0.7
210800,2108880,210897,4,86,99.8,0,19792,93.8,157973,165879,0.7
210801,2108890,210898,4,86,99.8,0,19274,93.8,157860,165723,0.7
210802,2108900,210899,4,86,99.8,0,18881,93.8,157780,165532,0.7
210803,2108910,210900,4,86,99.8,0,18803,93.8,157730,165386,0.7
210804,2108920,210901,4,86,99.8,0,19167,93.8,157658,165277,0.7
210805,2108930,210902,4,86,99.8,0,20039,93.8,157576,165161,0.7
210806,2108940,210903,4,86,99.8,0,21418,93.8,157584,165079,0.7
210807,2108950,210904,4,86,99.8,0,23371,93.8,157536,165003,0.7
210808,2108960,210905,4,86,99.8,0,25837,93.8,157514,164965,0.7
210809,2108970,210906,4,86,99.8,0,28818,93.8,157506,164933,0.7
210810,2108980,210907,4,86,99.8,0,32193,93.8,157479,164862,0.7
210811,2108990,210908,4,86,99.8,0,35835,93.8,157473,164841,0.7
210812,2109000,210909,4,86,99.8,0,39682,93.8,157432,164771,0.7
210813,2109010,210910,4,86,99.8,0,43602,93.8,157391,164733,0.7
210814,2109020,210911,4,86,99.8,0,47464,93.8,157390,164698,0.7
210815,2109030,210912,4,86,99.8,0,51137,93.8,157357,164647,0.7
210816,2109040,210913,4,86,99.8,0,54425,93.8,157341,164625,0.7
210817,2109050,210914,4,86,99.8,0,57519,93.8,157332,164562,0.7
210818,2109060,210915,4,86,99.8,0,60225,93.8,157313,164551,0.7
210819,2109070,210916,4,86,99.8,0,62258,93.8,157335,164562,0.7
210820,2109080,210917,4,86,99.8,0,62258,93.8,157345,164584,0.7
210821,2109090,210918,4,86,99.8,0,62258,93.8,157355,164574,0.7
210822,2109100,210919,4,86,99.8,0,62258,93.8,157375,164659,0.7
210823,2109110,210920,4,86,99.8,0,62258,93.8,157386,164686,0.7
210824,2109120,210921,4,86,99.8,0,62258,93.8,157413,164737,0.7
210825,2109130,210922,4,86,99.8,0,62258,93.8,157420,164801,0.7
210826,2109140,210923,4,86,99.8,0,62152,93.8,157429,164806,0.7
210827,2109150,210924,4,86,99.8,8,61781,93.8,157445,164816,0.7
210828,2109160,210925,4,86,99.8,0,61200,93.8,157462,164832,0.7
210829,2109170,210926,4,86,99.8,0,60460,93.8,157471,164865,0.7
210830,2109180,210927,4,86,99.8,0,59510,93.8,157482,164876,0.7
210831,2109190,210928,4,86,99.8,0,58455,93.8,157496,164853,0.7
210832,2109200,210929,4,86,99.8,0,57348,93.8,157511,164914,0.7
210833,2109210,210930,4,86,99.8,0,56137,93.8,157510,164923,0.7
210834,2109220,210931,4,86,99.8,0,54926,93.8,157502,164949,0.7
210835,2109230,210932,4,86,99.8,0,53715,93.8,157525,164993,0.7
210836,2109240,210933,4,86,99.8,0,52558,93.8,157547,165012,0.7
210837,2109250,210934,4,86,99.8,0,51401,93.8,157556,165046,0.7
210838,2109260,210935,4,86,99.8,0,50350,93.8,157588,165081,0.7
210839,2109270,210936,4,86,99.8,0,49246,93.8,157595,165109,0.7
210840,2109280,210937,4,86,99.8,0,48247,93.8,157606,165131,0.7
210841,2109290,210938,4,86,99.8,0,47247,93.8,157636,165187,0.7
210842,2109300,210939,4,86,99.8,0,46300,93.8,157640,165226,0.7
210843,2109310,210940,4,86,99.8,0,45405,93.8,157669,165271,0.7
210844,2109320,210941,4,86,99.8,0,44562,93.8,157676,165319,0.7
210845,2109330,210942,4,86,99.8,0,43717,93.8,157708,165352,0.7
210846,2109340,210943,4,86,99.8,0,42818,93.8,157739,165381,0.7
210847,2109350,210944,4,86,99.8,0,41917,93.8,157725,165396,0.7
210848,2109360,210945,4,86,99.8,0,40960,93.8,157753,165423,0.7
210849,2109370,210946,4,86,99.8,0,40000,93.8,157748,165468,0.7
210850,2109380,210947,4,86,99.8,0,39038,93.8,157783,165487,0.7
210851,2109390,210948,4,86,99.8,0,38020,93.8,157815,165543,0.7
210852,2109400,210949,4,86,99.8,0,37052,93.8,157816,165576,0.7
210853,2109410,210950,4,86,99.8,0,36027,93.8,157828,165617,0.7
210854,2109420,210951,4,86,99.8,0,34999,93.8,157847,165627,0.7
210855,2109430,210952,4,86,99.8,0,33967,93.8,157859,165680,0.7
210856,2109440,210953,4,86,99.8,0,32876,93.8,157898,165724,0.7
210857,2109450,210954,4,86,99.8,0,31891,93.8,157913,165754,0.7
210858,2109460,210955,4,86,99.8,0,30957,93.8,157915,165774,0.7
210859,2109470,210956,4,86,99.8,0,29964,93.8,157935,165835,0.7
210860,2109480,210957,4,86,99.8,0,28968,93.8,157943,165881,0.7
210861,2109490,210958,4,86,99.8,0,28080,93.8,158027,165890,0.7
210862,2109500,210959,4,86,99.8,0,27133,93.8,157996,165934,0.7
210863,2109510,210960,4,86,99.8,0,26184,93.8,157980,165984,0.7
210864,2109520,210961,4,86,99.8,0,25288,93.8,158011,166002,0.7
210865,2109530,210962,4,86,99.8,0,24390,93.8,158028,165995,0.7
210866,2109540,210963,4,86,99.8,0,23490,93.8,158034,166012,0.7
210867,2109550,210964,4,86,99.8,0,22643,93.8,158017,165947,0.7
210868,2109560,210965,4,86,99.8,0,21739,93.8,157926,165829,0.7
210869,2109570,210966,4,86,99.8,0,21001,93.8,157863,165690,0.7
210870,2109580,210967,4,86,99.8,0,20318,93.8,157800,165512,0.7
210871,2109590,210968,4,86,99.8,0,19801,93.8,157605,165339,0.7
210872,2109600,210969,4,86,99.8,0,19619,93.8,157624,165166,0.7
210873,2109610,210970,4,86,99.8,0,19717,93.8,157573,165079,0.7
210874,2109620,210971,4,86,99.8,0,20207,93.8,157530,164959,0.7
210875,2109630,210972,4,86,99.8,0,21202,93.8,157482,164868,0.7
210876,2109640,210973,4,86,99.8,0,22649,93.8,157433,164794,0.7
210877,2109650,210974,4,86,99.8,0,24549,93.8,157413,164715,0.7
210878,2109660,210975,4,86,99.8,0,26960,93.8,157372,164692,0.7
210879,2109670,210976,4,86,99.8,0,29605,93.8,157375,164638,0.7
210880,2109680,210977,4,86,99.8,0,32597,93.8,157335,164583,0.7
210881,2109690,210978,4,86,99.8,0,35771,93.8,157233,164548,0.7
210882,2109700,210979,4,86,99.8,0,39069,93.8,157305,164550,0.7
210883,2109710,210980,4,86,99.8,0,42319,93.8,157304,164514,0.7
210884,2109720,210981,4,86,99.8,0,45518,93.8,157312,164492,0.7
210885,2109730,210982,4,86,99.8,0,48550,93.8,157303,164440,0.7
210886,2109740,210983,4,86,99.8,0,51243,93.8,157273,164437,0.7
210887,2109750,210984,4,86,99.8,0,53651,93.8,157270,164416,0.7
210888,2109760,210985,4,86,99.8,0,55659,93.8,157264,164406,0.7
210889,2109770,210986,4,86,99.8,0,57381,93.8,157264,164448,0.7
210890,2109780,210987,4,86,99.8,0,58701,93.8,157299,164498,0.7
210891,2109790,210988,4,86,99.8,0,59677,93.8,157305,164530,0.7
210892,2109800,210989,4,86,99.8,0,60310,93.8,157342,164563,0.7
210893,2109810,210990,4,86,99.8,0,60599,93.8,157365,164629,0.7
210894,2109820,210991,4,86,99.8,0,60545,93.8,157384,164632,0.7
210895,2109830,210992,4,86,99.8,8,60263,93.8,157394,164674,0.7
210896,2109840,210993,4,86,99.8,0,59695,93.8,157403,164684,0.7
210897,2109850,210994,4,86,99.8,0,58900,93.8,157407,164729,0.7
210898,2109860,210995,4,86,99.8,0,57992,93.8,157410,164712,0.7
210899,2109870,210996,4,86,99.8,0,56914,93.8,157432,164780,0.7
210900,2109880,210997,4,86,99.8,0,55665,93.8,157424,164752,0.7
210901,2109890,210998,4,86,99.8,0,54359,93.8,157438,164800,0.7
210902,2109900,210999,4,86,99.8,0,52997,93.8,157452,164814,0.7
210903,2109910,211000,4,86,99.8,0,51692,93.8,157447,164823,0.7
210904,2109920,211001,4,86,99.8,0,50387,93.8,157491,164851,0.7
210905,2109930,211002,4,86,99.8,0,49138,93.8,157510,164885,0.7
210906,2109940,211003,4,86,99.8,0,47889,93.8,157535,164936,0.7
210907,2109950,211004,4,86,99.8,0,46753,93.8,157564,164977,0.7
210908,2109960,211005,4,86,99.8,0,45731,93.8,157566,164994,0.7
210909,2109970,211006,4,86,99.8,0,44708,93.8,157553,165065,0.7
210910,2109980,211007,4,86,99.8,0,43683,93.8,157609,165108,0.7
210911,2109990,211008,4,86,99.8,0,42772,94.2,157607,165106,0.7
210912,2110000,211009,4,86,99.8,0,41916,94.2,157612,165158,0.7
210913,2110010,211010,4,86,99.8,0,41001,94.2,157628,165179,0.7
210914,2110020,211011,4,86,99.8,0,40084,94.2,157656,165244,0.7
210915,2110030,211012,4,86,99.8,0,39165,94.2,157700,165269,0.7
210916,2110040,211013,4,86,99.8,0,38185,94.2,157726,165302,0.7
210917,2110050,211014,4,86,99.8,0,37260,94.2,157711,165325,0.7
210918,2110060,211015,4,86,99.8,0,36274,94.2,157748,165363,0.7
210919,2110070,211016,4,86,99.8,0,35226,94.2,157761,165424,0.7
210920,2110080,211017,4,86,99.8,0,34116,94.2,157776,165434,0.7
210921,2110090,211018,4,86,99.8,0,32943,94.2,157800,165475,0.7
210922,2110100,211019,4,86,99.8,0,31884,94.2,157805,165516,0.7
210923,2110110,211020,4,86,99.8,0,30761,94.2,157841,165523,0.7
210924,2110120,211021,4,86,99.8,0,29575,94.2,157875,165579,0.7
210925,2110130,211022,4,86,99.8,0,28503,94.2,157864,165624,0.7
210926,2110140,211023,4,86,99.8,0,27429,94.2,157896,165674,0.7
210927,2110150,211024,4,86,99.8,0,26351,94.2,157892,165703,0.7
210928,2110160,211025,4,86,99.8,0,25211,94.2,157898,165732,0.7
210929,2110170,211026,4,86,99.8,0,24187,94.2,157901,165752,0.7
210930,2110180,211027,4,86,99.8,0,23220,94.2,157978,165799,0.7
210931,2110190,211028,4,86,99.8,0,22192,94.2,157971,165846,0.7
210932,2110200,211029,4,86,99.8,0,21282,94.2,158009,165896,0.7
210933,2110210,211030,4,86,99.8,0,20430,94.2,158027,165921,0.7
210934,2110220,211031,4,86,99.8,0,19517,94.2,158057,165933,0.7
210935,2110230,211032,4,86,99.8,0,18662,94.2,158027,165923,0.7
210936,2110240,211033,4,86,99.8,0,17807,94.2,157994,165866,0.7
210937,2110250,211034,4,86,99.8,0,17011,94.2,157947,165765,0.7
210938,2110260,211035,4,86,99.8,0,16275,94.2,157842,165644,0.7
210939,2110270,211036,4,86,99.8,0,15538,94.2,157799,165449,0.7
210940,2110280,211037,4,86,99.8,0,15042,94.2,157687,165282,0.7
210941,2110290,211038,4,86,99.8,0,14847,94.2,157630,165148,0.7
210942,2110300,211039,4,86,99.8,0,14954,94.2,157560,165022,0.7
210943,2110310,211040,4,86,99.8,0,15423,94.2,157531,164889,0.7
210944,2110320,211041,4,86,99.8,0,16375,94.2,157481,164807,0.7
210945,2110330,211042,4,86,99.8,0,17813,94.2,157457,164761,0.7
210946,2110340,211043,4,86,99.8,0,19796,94.2,157422,164720,0.7
210947,2110350,211044,4,86,99.8,0,22147,94.2,157408,164651,0.7
210948,2110360,211045,4,86,99.8,0,24988,94.2,157398,164625,0.7
210949,2110370,211046,4,86,99.8,0,28080,94.2,157370,164604,0.7
210950,2110380,211047,4,86,99.8,0,31425,94.2,157370,164577,0.7
210951,2110390,211048,4,86,99.8,0,34844,94.2,157361,164595,0.8
210952,2110400,211049,4,86,99.8,0,38275,94.2,157320,164522,0.8
210953,2110410,211050,4,86,99.8,0,41654,94.2,157308,164500,0.8
210954,2110420,211051,4,86,99.8,0,44733,94.2,157328,164487,0.8
210955,2110430,211052,4,86,99.8,0,47509,94.2,157338,164490,0.8
210956,2110440,211053,4,86,99.8,0,49980,94.2,157324,164465,0.8
210957,2110450,211054,4,86,99.8,0,52023,94.2,157348,164495,0.8
210958,2110460,211055,4,86,99.8,0,53819,94.2,157325,164494,0.8
210959,2110470,211056,4,86,99.8,0,55184,94.2,157370,164571,0.8
210960,2110480,211057,4,86,99.8,0,56056,94.2,157394,164608,0.8
210961,2110490,211058,4,86,99.8,0,56557,94.2,157438,164569,0.8
210962,2110500,211059,4,86,99.8,0,56751,94.2,157420,164680,0.8
210963,2110510,211060,4,86,99.8,0,56574,94.2,157435,164711,0.8
210964,2110520,211061,4,86,99.8,8,56152,94.2,157470,164748,0.8
210965,2110530,211062,4,86,99.8,0,55421,94.2,157466,164740,0.8
210966,2110540,211063,4,86,99.8,0,54506,94.2,157476,164782,0.8
210967,2110550,211064,4,86,99.8,0,53344,94.2,157460,164763,0.8
210968,2110560,211065,4,86,99.8,0,52120,94.2,157475,164810,0.8
210969,2110570,211066,4,86,99.8,0,50773,94.2,157493,164829,0.8
210970,2110580,211067,4,86,99.8,0,49426,94.2,157514,164846,0.8
210971,2110590,211068,4,86,99.8,0,48077,94.2,157550,164738,0.8
210972,2110600,211069,4,86,99.8,0,46728,94.2,157539,164882,0.8
210973,2110610,211070,4,86,99.8,0,45376,94.2,157557,164932,0.8
210974,2110620,211071,4,86,99.8,0,44210,94.2,157575,164986,0.8
210975,2110630,211072,4,86,99.8,0,43041,94.2,157598,165010,0.8
210976,2110640,211073,4,86,99.8,0,41933,94.2,157621,165028,0.8
210977,2110650,211074,4,86,99.8,0,40884,94.2,157647,165114,0.8
210978,2110660,211075,4,86,99.8,0,39958,94.2,157656,165097,0.8
210979,2110670,211076,4,86,99.8,0,39030,94.2,157647,165159,0.8
210980,2110680,211077,4,86,99.8,0,38224,94.2,157678,165166,0.8
210981,2110690,211078,4,86,99.8,0,37354,94.2,157696,165113,0.8
210982,2110700,211079,4,86,99.8,0,36480,94.2,157724,165267,0.8
210983,2110710,211080,4,86,99.8,0,35541,94.2,157745,165289,0.8
210984,2110720,211081,4,86,99.8,0,34662,94.2,157726,165324,0.8
210985,2110730,211082,4,86,99.8,0,33716,94.2,157763,165359,0.8
210986,2110740,211083,4,86,99.8,0,32767,94.2,157783,165421,0.8
210987,2110750,211084,4,86,99.8,0,31750,94.2,157807,165437,0.8
210988,2110760,211085,4,86,99.8,0,30667,94.2,157822,165459,0.8
210989,2110770,211086,4,86,99.8,0,29642,94.2,157839,165507,0.8
210990,2110780,211087,4,86,99.8,0,28551,94.2,157864,165542,0.8
210991,2110790,211088,4,86,99.8,0,27393,94.2,157885,165574,0.8
210992,2110800,211089,4,86,99.8,0,26295,94.2,157903,165618,0.8
210993,2110810,211090,4,86,99.8,0,25194,94.2,157884,165636,0.8
210994,2110820,211091,4,86,99.8,0,24091,94.2,157920,165676,0.8
210995,2110830,211092,4,86,99.8,0,22985,94.2,157955,165730,0.8
210996,2110840,211093,4,86,99.8,0,21877,94.2,157962,165782,0.8
210997,2110850,211094,4,86,99.8,0,20768,94.2,157981,165772,0.8
210998,2110860,211095,4,86,99.8,0,19721,94.2,158023,165855,0.8
210999,2110870,211096,4,86,99.8,0,18673,94.2,158013,165880,0.8
211000,2110880,211097,4,86,99.8,0,17623,94.2,158009,165905,0.8
211001,2110890,211098,4,86,99.8,0,16573,94.2,158066,165956,0.8
211002,2110900,211099,4,86,99.8,0,15651,94.2,158077,165964,0.8
211003,2110910,211100,4,86,99.8,0,14730,94.2,158096,166009,0.8
211004,2110920,211101,4,86,99.8,0,13807,94.2,158071,165955,0.8
211005,2110930,211102,4,86,99.8,0,12885,94.2,158044,165883,0.8
211006,2110940,211103,4,86,99.8,0,12093,94.2,157978,165762,0.8
211007,2110950,211104,4,86,99.8,0,11366,94.2,157917,165626,0.8
211008,2110960,211105,4,86,99.8,0,10769,94.2,157832,165448,0.8
211009,2110970,211106,4,86,99.8,0,10368,94.2,157740,165267,0.8
211010,2110980,211107,4,86,99.8,0,10357,94.2,157662,165142,0.8
211011,2110990,211108,4,86,99.8,0,10738,94.2,157605,164999,0.8
211012,2111000,211109,4,86,99.8,0,11574,94.2,157547,164892,0.8
211013,2111010,211110,4,86,99.8,0,12866,94.2,157503,164842,0.8
211014,2111020,211111,4,86,99.8,0,14745,94.2,157489,164769,0.8
211015,2111030,211112,4,86,99.8,0,17082,94.2,157442,164707,0.8
211016,2111040,211113,4,86,99.8,0,19944,94.2,157445,164677,0.8
211017,2111050,211114,4,86,99.8,0,23268,94.2,157413,164621,0.8
211018,2111060,211115,4,86,99.8,0,26928,94.2,157409,164613,0.8
211019,2111070,211116,4,86,99.8,0,30664,94.2,157395,164549,0.8
211020,2111080,211117,4,86,99.8,0,34545,94.2,157389,164530,0.8
211021,2111090,211118,4,86,99.8,0,38308,94.2,157383,164498,0.8
211022,2111100,211119,4,86,99.8,0,42015,94.2,157373,164479,0.8
211023,2111110,211120,4,86,99.8,0,45465,94.2,157324,164399,0.8
211024,2111120,211121,4,86,99.8,0,48522,94.2,157321,164435,0.8
211025,2111130,211122,4,86,99.8,0,51251,94.2,157338,164403,0.8
211026,2111140,211123,4,86,99.8,0,53583,94.2,157340,164443,0.8
211027,2111150,211124,4,86,99.8,0,55450,94.2,157357,164469,0.8
211028,2111160,211125,4,86,99.8,0,56985,94.2,157357,164496,0.8
211029,2111170,211126,4,86,99.8,0,58054,94.2,157384,164529,0.8
211030,2111180,211127,4,86,99.8,0,58791,94.2,157400,164564,0.8
211031,2111190,211128,4,86,99.8,0,59129,94.2,157429,164587,0.8
211032,2111200,211129,4,86,99.8,0,59068,94.2,157433,164639,0.8
211033,2111210,211130,4,86,99.8,8,58742,94.2,157449,164641,0.8
211034,2111220,211131,4,86,99.8,0,58151,94.2,157475,164681,0.8
211035,2111230,211132,4,86,99.8,0,57296,94.2,157475,164687,0.8
211036,2111240,211133,4,86,99.8,0,56241,94.2,157480,164708,0.8
211037,2111250,211134,4,86,99.8,0,54988,94.2,157477,164721,0.8
211038,2111260,211135,4,86,99.8,0,53670,94.2,157477,164748,0.8
211039,2111270,211136,4,86,99.8,0,52284,94.2,157493,164768,0.8
211040,2111280,211137,4,86,99.8,0,50832,94.2,157513,164768,0.8
211041,2111290,211138,4,86,99.8,0,49447,94.2,157519,164785,0.8
211042,2111300,211139,4,86,99.8,0,48126,94.2,157530,164835,0.8
211043,2111310,211140,4,86,99.8,0,46805,94.2,157559,164894,0.8
211044,2111320,211141,4,86,99.8,0,45549,94.2,157557,164925,0.8
211045,2111330,211142,4,86,99.8,0,44425,94.2,157600,164961,0.8
211046,2111340,211143,4,86,99.8,0,43366,94.2,157625,164991,0.8
211047,2111350,211144,4,86,99.8,0,42306,94.2,157632,165037,0.8
211048,2111360,211145,4,86,99.8,0,41243,94.2,157664,165100,0.8
211049,2111370,211146,4,86,99.8,0,40244,94.2,157681,165101,0.8
211050,2111380,211147,4,86,99.8,0,39311,94.2,157695,165148,0.8
211051,2111390,211148,4,86,99.8,0,38241,94.2,157722,165201,0.8
211052,2111400,211149,4,86,99.8,0,37234,94.2,157728,165218,0.8
211053,2111410,211150,4,86,99.8,0,36157,94.2,157776,165266,0.8
211054,2111420,211151,4,86,99.8,0,35144,94.2,157768,165298,0.8
211055,2111430,211152,4,86,99.8,0,33924,94.2,157773,165326,0.8
211056,2111440,211153,4,86,99.8,0,32767,94.2,157828,165384,0.8
211057,2111450,211154,4,86,99.8,0,31537,94.2,157824,165414,0.8
211058,2111460,211155,4,86,99.8,0,30235,94.2,157842,165446,0.8
211059,2111470,211156,4,86,99.8,0,28927,94.2,157866,165475,0.8
211060,2111480,211157,4,86,99.8,0,27616,94.2,157875,165494,0.8
211061,2111490,211158,4,86,99.8,0,26301,94.2,157880,165533,0.8
211062,2111500,211159,4,86,99.8,0,24982,94.2,157881,165569,0.8
211063,2111510,211160,4,86,99.8,0,23730,94.2,157933,165598,0.8
211064,2111520,211161,4,86,99.8,0,22474,94.2,157941,165637,0.8
211065,2111530,211162,4,86,99.8,0,21286,94.2,157967,165664,0.8
211066,2111540,211163,4,86,99.8,0,20095,94.2,157981,165730,0.8
211067,2111550,211164,4,86,99.8,0,19042,94.2,157990,165743,0.8
211068,2111560,211165,4,86,99.8,0,17987,94.2,157993,165795,0.8
211069,2111570,211166,4,86,99.8,0,17000,94.2,158018,165828,0.8
211070,2111580,211167,4,86,99.8,0,16013,94.2,158054,165858,0.8
211071,2111590,211168,4,86,99.8,0,15095,94.2,158051,165895,0.8
211072,2111600,211169,4,86,99.8,0,14176,94.2,158083,165886,0.8
211073,2111610,211170,4,86,99.8,0,13257,94.2,158057,165905,0.8
211074,2111620,211171,4,86,99.8,0,12408,94.2,158006,165819,0.8
211075,2111630,211172,4,86,99.8,0,11559,94.2,157986,165736,0.8
211076,2111640,211173,4,86,99.8,0,10710,94.2,157919,165547,0.8
211077,2111650,211174,4,86,99.8,0,10071,94.2,157815,165393,0.8
211078,2111660,211175,4,86,99.8,0,9642,94.2,157746,165197,0.8
211079,2111670,211176,4,86,99.8,0,9492,94.2,157659,165048,0.8
211080,2111680,211177,4,86,99.8,0,9761,94.2,157605,164899,0.8
211081,2111690,211178,4,86,99.8,0,10589,94.2,157539,164786,0.8
211082,2111700,211179,4,86,99.8,0,11977,94.2,157491,164706,0.8
211083,2111710,211180,4,86,99.8,0,13924,94.2,157464,164659,0.8
211084,2111720,211181,4,86,99.8,0,16432,94.2,157453,164606,0.8
211085,2111730,211182,4,86,99.8,0,19502,94.2,157382,164515,0.8
211086,2111740,211183,4,86,99.8,0,23069,94.2,157371,164494,0.8
211087,2111750,211184,4,86,99.8,0,26996,94.2,157381,164460,0.8
211088,2111760,211185,4,86,99.8,0,31145,94.2,157342,164427,0.8
211089,2111770,211186,4,86,99.8,0,35451,94.2,157310,164375,0.8
211090,2111780,211187,4,86,99.8,0,39772,94.2,157317,164340,0.8
211091,2111790,211188,4,86,99.8,0,43890,94.2,157307,164317,0.8
211092,2111800,211189,4,86,99.8,0,47731,94.2,157303,164298,0.8
211093,2111810,211190,4,86,99.8,0,51291,94.2,157276,164267,0.8
211094,2111820,211191,4,86,99.8,0,54426,94.2,157269,164252,0.8
211095,2111830,211192,4,86,99.8,0,57134,94.2,157281,164275,0.8
211096,2111840,211193,4,86,99.8,0,59342,94.2,157272,164297,0.8
211097,2111850,211194,4,86,99.8,0,61121,94.2,157293,164330,0.8
211098,2111860,211195,4,86,99.8,0,62258,94.2,157335,164363,0.8
211099,2111870,211196,4,86,99.8,0,62258,94.2,157349,164392,0.8
211100,2111880,211197,4,86,99.8,0,62258,94.2,157360,164458,0.8
211101,2111890,211198,4,86,99.8,0,61991,94.2,157388,164503,0.8
211102,2111900,211199,4,86,99.8,8,61724,94.2,157408,164522,0.8
211103,2111910,211200,4,86,99.8,0,61123,94.2,157399,164522,0.8
211104,2111920,211201,4,86,99.8,0,60257,94.2,157437,164547,0.8
211105,2111930,211202,4,86,99.8,0,59192,94.2,157453,164584,0.8
211106,2111940,211203,4,86,99.8,0,57861,94.2,157464,164609,0.8
211107,2111950,211204,4,86,99.8,0,56397,94.2,157452,164616,0.8
211108,2111960,211205,4,86,99.8,0,54801,94.2,157472,164627,0.8
211109,2111970,211206,4,86,99.8,0,53272,94.2,157479,164680,0.8
211110,2111980,211207,4,86,99.8,0,51677,94.2,157493,164702,0.8
211111,2111990,211208,4,86,99.8,0,50215,94.2,157493,164717,0.8
211112,2112000,211209,4,86,99.8,0,48753,94.2,157508,164765,0.8
211113,2112010,211210,4,86,99.8,0,47424,94.2,157523,164781,0.8
211114,2112020,211211,4,86,99.8,0,46094,94.2,157550,164812,0.8
211115,2112030,211212,4,86,99.8,0,44829,94.2,157575,164863,0.8
211116,2112040,211213,4,86,99.8,0,43697,94.2,157592,164898,0.8
211117,2112050,211214,4,86,99.8,0,42630,94.2,157618,164927,0.8
211118,2112060,211215,4,86,99.8,0,41561,94.2,157622,164968,0.8
211119,2112070,211216,4,86,99.8,0,40558,94.2,157627,165013,0.8
211120,2112080,211217,4,86,99.8,0,39552,94.2,157665,165067,0.8
211121,2112090,211218,4,86,99.8,0,38543,94.2,157710,165096,0.8
211122,2112100,211219,4,86,99.8,0,37532,94.2,157707,165119,0.8
211123,2112110,211220,4,86,99.8,0,36449,94.2,157722,165164,0.8
211124,2112120,211221,4,86,99.8,0,35363,94.2,157723,165192,0.8
211125,2112130,211222,4,86,99.8,0,34204,94.2,157763,165237,0.8
211126,2112140,211223,4,86,99.8,0,32973,94.2,157767,165264,0.8
211127,2112150,211224,4,86,99.8,0,31736,94.2,157789,165282,0.8
211128,2112160,211225,4,86,99.8,0,30496,94.2,157788,165326,0.8
211129,2112170,211226,4,86,99.8,0,29250,94.2,157816,165380,0.8
211130,2112180,211227,4,86,99.8,0,27932,94.2,157828,165406,0.8
211131,2112190,211228,4,86,99.8,0,26610,94.2,157840,165454,0.8
211132,2112200,211229,4,86,99.8,0,25353,94.2,157869,165480,0.8
211133,2112210,211230,4,86,99.8,0,24094,94.2,157910,165533,0.8
211134,2112220,211231,4,86,99.8,0,22831,94.2,157900,165548,0.8
211135,2112230,211232,4,86,99.8,0,21636,94.2,157935,165598,0.8
211136,2112240,211233,4,86,99.8,0,20439,94.2,157934,165648,0.8
211137,2112250,211234,4,86,99.8,0,19240,94.2,157965,165678,0.8
211138,2112260,211235,4,86,99.8,0,18109,94.2,157978,165727,0.8
211139,2112270,211236,4,86,99.8,0,17116,94.2,157996,165720,0.8
211140,2112280,211237,4,86,99.8,0,16053,94.2,158008,165788,0.8
211141,2112290,211238,4,86,99.8,0,15060,94.2,158017,165803,0.8
211142,2112300,211239,4,86,99.8,0,14066,94.2,158054,165828,0.8
211143,2112310,211240,4,86,99.8,0,13002,94.2,158024,165825,0.8
211144,2112320,211241,4,86,99.8,0,12008,94.2,157989,165705,0.8
211145,2112330,211242,4,86,99.8,0,11084,94.2,157930,165611,0.8
211146,2112340,211243,4,86,99.8,0,10231,94.2,157853,165414,0.8
211147,2112350,211244,4,86,99.8,0,9659,94.2,157776,165267,0.8
211148,2112360,211245,4,86,99.8,0,9228,94.2,157692,165090,0.8
211149,2112370,211246,4,86,99.8,0,9078,94.2,157601,164911,0.8
211150,2112380,211247,4,86,99.8,0,9419,94.2,157551,164774,0.8
211151,2112390,211248,4,86,99.8,0,10393,94.2,157469,164686,0.8
211152,2112400,211249,4,86,99.8,0,11859,94.2,157458,164586,0.8
211153,2112410,211250,4,86,99.8,0,13958,94.2,157423,164519,0.8
211154,2112420,211251,4,86,99.8,0,16621,94.2,157387,164450,0.8
211155,2112430,211252,4,86,99.8,0,19851,94.2,157368,164407,0.8
211156,2112440,211253,4,86,99.8,0,23579,94.2,157312,164366,0.8
211157,2112450,211254,4,86,99.8,0,27670,94.2,157328,164332,0.8
211158,2112460,211255,4,86,99.8,0,32058,94.2,157290,164293,0.8
211159,2112470,211256,4,86,99.8,0,36461,94.2,157281,164260,0.8
211160,2112480,211257,4,86,99.8,0,40879,94.2,157279,164227,0.8
211161,2112490,211258,4,86,99.8,0,45163,94.2,157260,164200,0.8
211162,2112500,211259,4,86,99.8,0,49168,94.2,157239,164150,0.8
211163,2112510,211260,4,86,99.8,0,52818,94.2,157234,164137,0.8
211164,2112520,211261,4,86,99.8,0,55969,94.2,157231,164124,0.8
211165,2112530,211262,4,86,99.8,0,58689,94.2,157240,164119,0.8
211166,2112540,211263,4,86,99.8,0,60977,94.2,157232,164134,0.8
211167,2112550,211264,4,86,99.8,0,62258,94.2,157250,164167,0.8
211168,2112560,211265,4,86,99.8,0,62258,94.2,157266,164219,0.8
211169,2112570,211266,4,86,99.8,0,62258,94.2,157292,164262,0.8
211170,2112580,211267,4,86,99.8,0,62258,94.2,157292,164287,0.8
211171,2112590,211268,4,86,99.8,0,62258,94.2,157348,164312,0.8
211172,2112600,211269,4,86,99.8,8,62002,94.2,157349,164354,0.8
211173,2112610,211270,4,86,99.8,0,61492,94.2,157373,164366,0.8
211174,2112620,211271,4,86,99.8,0,60727,94.2,157369,164404,0.8
211175,2112630,211272,4,86,99.8,0,59707,94.2,157394,164457,0.8
211176,2112640,211273,4,86,99.8,0,58498,94.2,157391,164421,0.8
211177,2112650,211274,4,86,99.8,0,57161,94.2,157396,164450,0.8
211178,2112660,211275,4,86,99.8,0,55762,94.2,157375,164446,0.8
211179,2112670,211276,4,86,99.8,0,54364,94.2,157399,164475,0.8
211180,2112680,211277,4,86,99.8,0,52902,94.2,157417,164478,0.8
211181,2112690,211278,4,86,99.8,0,51441,94.2,157420,164527,0.8
211182,2112700,211279,4,86,99.8,0,50107,94.2,157437,164517,0.8
211183,2112710,211280,4,86,99.8,0,48901,94.2,157448,164584,0.8
211184,2112720,211281,4,86,99.8,0,47694,94.2,157509,164625,0.8
211185,2112730,211282,4,86,99.8,0,46550,94.2,157486,164679,0.8
211186,2112740,211283,4,86,99.8,0,45469,94.2,157512,164699,0.8
211187,2112750,211284,4,86,99.8,0,44516,94.2,157508,164722,0.8
211188,2112760,211285,4,86,99.8,0,43626,94.2,157568,164796,0.8
211189,2112770,211286,4,86,99.8,0,42734,94.2,157585,164828,0.8
211190,2112780,211287,4,86,99.8,0,41840,94.2,157577,164856,0.8
211191,2112790,211288,4,86,99.8,0,40944,94.2,157597,164890,0.8
211192,2112800,211289,4,86,99.8,0,39982,94.2,157601,164915,0.8
211193,2112810,211290,4,86,99.8,0,38951,94.2,157643,164964,0.8
211194,2112820,211291,4,86,99.8,0,37853,94.2,157646,164999,0.8
211195,2112830,211292,4,86,99.8,0,36751,94.2,157691,165027,0.8
211196,2112840,211293,4,86,99.8,0,35646,94.2,157687,165073,0.8
211197,2112850,211294,4,86,99.8,0,34406,94.2,157715,165115,0.8
211198,2112860,211295,4,86,99.8,0,33161,94.2,157729,165146,0.8
211199,2112870,211296,4,86,99.8,0,31846,94.2,157732,165161,0.8
211200,2112880,211297,4,86,99.8,0,30657,94.2,157725,165203,0.8
211201,2112890,211298,4,86,99.8,0,29399,94.2,157783,165251,0.8
211202,2112900,211299,4,86,99.8,0,28202,94.2,157771,165266,0.8
211203,2112910,211300,4,86,99.8,0,26936,94.2,157795,165289,0.8
211204,2112920,211301,4,86,99.8,0,25732,94.2,157799,165339,0.8
211205,2112930,211302,4,86,99.8,0,24592,94.2,157832,165368,0.8
211206,2112940,211303,4,86,99.8,0,23449,94.2,157839,165391,0.8
211207,2112950,211304,4,86,99.8,0,22304,94.2,157884,165462,0.8
211208,2112960,211305,4,86,99.8,0,21290,94.2,157875,165494,0.8
211209,2112970,211306,4,86,99.8,0,20275,94.2,157916,165539,0.8
211210,2112980,211307,4,86,99.8,0,19258,94.2,157955,165564,0.8
211211,2112990,211308,4,86,99.8,0,18307,94.2,157916,165547,0.8
211212,2113000,211309,4,86,99.8,0,17355,94.2,157927,165537,0.8
211213,2113010,211310,4,86,99.8,0,16470,94.2,157859,165427,0.8
211214,2113020,211311,4,86,99.8,0,15650,94.2,157800,165305,0.8
211215,2113030,211312,4,86,99.8,0,14898,94.2,157719,165129,0.8
211216,2113040,211313,4,86,99.8,0,14280,94.2,157638,164965,0.8
211217,2113050,211314,4,86,99.8,0,13997,94.2,157528,164770,0.8
211218,2113060,211315,4,86,99.8,0,14051,94.2,157458,164610,0.8
211219,2113070,211316,4,86,99.8,0,14509,94.2,157380,164483,0.8
211220,2113080,211317,4,86,99.8,0,15371,94.2,157340,164369,0.8
211221,2113090,211318,4,86,99.8,0,16908,94.2,157309,164300,0.8
211222,2113100,211319,4,86,99.8,0,18986,94.2,157295,164225,0.8
211223,2113110,211320,4,86,99.8,0,21676,94.2,157237,164142,0.8
211224,2113120,211321,4,86,99.8,0,24843,94.2,157204,164101,0.8
211225,2113130,211322,4,86,99.8,0,28493,94.2,157195,164038,0.8
211226,2113140,211323,4,86,99.8,0,32427,94.2,157175,164009,0.8
211227,2113150,211324,4,86,99.8,0,36580,94.2,157144,163939,0.8
211228,2113160,211325,4,86,99.8,0,40881,94.2,157149,163908,0.8
211229,2113170,211326,4,86,99.8,0,45124,94.2,157124,163887,0.8
211230,2113180,211327,4,86,99.8,0,49168,94.2,157092,163860,0.8
211231,2113190,211328,4,86,99.8,0,53077,94.2,157076,163809,0.8
211232,2113200,211329,4,86,99.8,0,56575,94.2,157051,163782,0.8
211233,2113210,211330,4,86,99.8,0,59660,94.2,157041,163728,0.8
211234,2113220,211331,4,86,99.8,0,62258,94.2,157056,163754,0.8
211235,2113230,211332,4,86,99.8,0,62258,94.2,157052,163748,0.8
211236,2113240,211333,4,86,99.8,0,62258,94.2,157050,163778,0.8
211237,2113250,211334,4,86,99.8,0,62258,94.2,157077,163821,0.8
211238,2113260,211335,4,86,99.8,0,62258,94.2,157098,163831,0.8
211239,2113270,211336,4,86,99.8,0,62258,94.2,157145,163914,0.8
211240,2113280,211337,4,86,99.8,0,62258,94.2,157162,163960,0.8
211241,2113290,211338,4,86,99.8,8,62093,94.2,157167,163986,0.8
211242,2113300,211339,4,86,99.8,0,61764,93.8,157169,164006,0.8
211243,2113310,211340,4,86,99.8,0,61161,93.8,157198,164026,0.8
211244,2113320,211341,4,86,99.8,0,60283,93.8,157170,164034,0.8
211245,2113330,211342,4,86,99.8,0,59353,93.8,157201,164052,0.8
211246,2113340,211343,4,86,99.8,0,58203,93.8,157206,164090,0.8
211247,2113350,211344,4,86,99.8,0,56945,93.8,157197,164077,0.8
211248,2113360,211345,4,86,99.8,0,55688,93.8,157232,164121,0.8
211249,2113370,211346,4,86,99.8,0,54486,93.8,157225,164149,0.8
211250,2113380,211347,4,86,99.8,0,53231,93.8,157238,164181,0.8
211251,2113390,211348,4,86,99.8,0,51975,93.8,157267,164211,0.8
211252,2113400,211349,4,86,99.8,0,50774,93.8,157279,164253,0.8
211253,2113410,211350,4,86,99.8,0,49628,93.8,157300,164293,0.8
211254,2113420,211351,4,86,99.8,0,48537,93.8,157315,164312,0.8
211255,2113430,211352,4,86,99.8,0,47445,93.8,157324,164352,0.8
211256,2113440,211353,4,86,99.8,0,46407,93.8,157345,164396,0.8
211257,2113450,211354,4,86,99.8,0,45367,93.8,157363,164441,0.8
211258,2113460,211355,4,86,99.8,0,44437,93.8,157395,164461,0.8
211259,2113470,211356,4,86,99.8,0,43506,93.8,157400,164531,0.8
211260,2113480,211357,4,86,99.8,0,42462,93.8,157410,164546,0.8
211261,2113490,211358,4,86,99.8,0,41471,93.8,157459,164598,0.8
211262,2113500,211359,4,86,99.8,0,40533,93.8,157476,164631,0.8
211263,2113510,211360,4,86,99.8,0,39538,93.8,157450,164651,0.8
211264,2113520,211361,4,86,99.8,0,38540,93.8,157491,164705,0.8
211265,2113530,211362,4,86,99.8,0,37539,93.8,157517,164739,0.8
211266,2113540,211363,4,86,99.8,0,36479,93.8,157534,164788,0.8
211267,2113550,211364,4,86,99.8,0,35415,93.8,157541,164791,0.8
211268,2113560,211365,4,86,99.8,0,34291,93.8,157558,164855,0.8
211269,2113570,211366,4,86,99.8,0,33219,93.8,157571,164877,0.8
211270,2113580,211367,4,86,99.8,0,32144,93.8,157588,164919,0.8
211271,2113590,211368,4,86,99.8,0,31064,93.8,157638,164965,0.8
211272,2113600,211369,4,86,99.8,0,29980,93.8,157624,164990,0.8
211273,2113610,211370,4,86,99.8,0,28893,93.8,157666,165045,0.8
211274,2113620,211371,4,86,99.8,0,27802,93.8,157675,165078,0.8
211275,2113630,211372,4,86,99.8,0,26766,93.8,157677,165102,0.8
211276,2113640,211373,4,86,99.8,0,25783,93.8,157712,165164,0.8
211277,2113650,211374,4,86,99.8,0,24799,93.8,157728,165215,0.8
211278,2113660,211375,4,86,99.8,0,23812,93.8,157755,165278,0.8
211279,2113670,211376,4,86,99.8,0,22765,93.8,157778,165300,0.8
211280,2113680,211377,4,86,99.8,0,21717,93.8,157774,165278,0.8
211281,2113690,211378,4,86,99.8,0,20724,93.8,157773,165280,0.8
211282,2113700,211379,4,86,99.8,0,19788,93.8,157761,165210,0.8
211283,2113710,211380,4,86,99.8,0,18908,93.8,157696,165087,0.8
211284,2113720,211381,4,86,99.8,0,18084,93.8,157614,164911,0.8
211285,2113730,211382,4,86,99.8,0,17376,93.8,157520,164742,0.8
211286,2113740,211383,4,86,99.8,0,16841,93.8,157439,164552,0.8
211287,2113750,211384,4,86,99.8,0,16653,93.8,157331,164405,0.8
211288,2113760,211385,4,86,99.8,0,16870,93.8,157278,164245,0.8
211289,2113770,211386,4,86,99.8,0,17436,93.8,157206,164140,0.8
211290,2113780,211387,4,86,99.8,0,18467,93.8,157185,164067,0.8
211291,2113790,211388,4,86,99.8,0,20081,93.8,157150,164015,0.8
211292,2113800,211389,4,86,99.8,0,22163,93.8,157145,163948,0.8
211293,2113810,211390,4,86,99.8,0,24774,93.8,157100,163893,0.8
211294,2113820,211391,4,86,99.8,0,27741,93.8,157084,163866,0.8
211295,2113830,211392,4,86,99.8,0,31069,93.8,157062,163827,0.8
211296,2113840,211393,4,86,99.8,0,34527,93.8,157038,163781,0.8
211297,2113850,211394,4,86,99.8,0,38172,93.8,157033,163727,0.8
211298,2113860,211395,4,86,99.8,0,41711,93.8,157018,163720,0.8
211299,2113870,211396,4,86,99.8,0,45197,93.8,156978,163662,0.8
211300,2113880,211397,4,86,99.8,0,48453,93.8,156966,163641,0.8
211301,2113890,211398,4,86,99.8,0,51416,93.8,156971,163618,0.8
211302,2113900,211399,4,86,99.8,0,53967,93.8,156936,163608,0.8
211303,2113910,211400,4,86,99.8,0,56222,93.8,156977,163612,0.8
211304,2113920,211401,4,86,99.8,0,58062,93.8,156962,163629,0.8
211305,2113930,211402,4,86,99.8,0,59487,93.8,157006,163687,0.8
211306,2113940,211403,4,86,99.8,0,60496,93.8,157006,163728,0.8
211307,2113950,211404,4,86,99.8,0,61208,93.8,157034,163774,0.8
211308,2113960,211405,4,86,99.8,0,61565,93.8,157043,163805,0.8
211309,2113970,211406,4,86,99.8,0,61567,93.8,157068,163859,0.8
211310,2113980,211407,4,86,99.8,8,61215,93.8,157086,163896,0.8
211311,2113990,211408,4,86,99.8,0,60567,93.8,157088,163921,0.8
211312,2114000,211409,4,86,99.8,0,59744,93.8,157104,163932,0.8
211313,2114010,211410,4,86,99.8,0,58744,93.8,157115,163936,0.8
211314,2114020,211411,4,86,99.8,0,57568,93.8,157127,163950,0.8
211315,2114030,211412,4,86,99.8,0,56216,93.8,157142,163978,0.8
211316,2114040,211413,4,86,99.8,0,54806,93.8,157146,164009,0.8
211317,2114050,211414,4,86,99.8,0,53337,93.8,157176,164031,0.8
211318,2114060,211415,4,86,99.8,0,51868,93.8,157192,164058,0.8
211319,2114070,211416,4,86,99.8,0,50458,93.8,157196,164115,0.8
211320,2114080,211417,4,86,99.8,0,49106,93.8,157213,164156,0.8
211321,2114090,211418,4,86,99.8,0,47814,93.8,157201,164161,0.8
211322,2114100,211419,4,86,99.8,0,46520,93.8,157225,164180,0.8
211323,2114110,211420,4,86,99.8,0,45343,93.8,157243,164250,0.8
211324,2114120,211421,4,86,99.8,0,44284,93.8,157268,164273,0.8
211325,2114130,211422,4,86,99.8,0,43223,93.8,157307,164310,0.8
211326,2114140,211423,4,86,99.8,0,42160,93.8,157305,164382,0.8
211327,2114150,211424,4,86,99.8,0,41155,93.8,157328,164388,0.8
211328,2114160,211425,4,86,99.8,0,40088,93.8,157332,164439,0.8
211329,2114170,211426,4,86,99.8,0,39077,93.8,157364,164489,0.8
211330,2114180,211427,4,86,99.8,0,38124,93.8,157408,164527,0.8
211331,2114190,211428,4,86,99.8,0,37108,93.8,157419,164568,0.8
211332,2114200,211429,4,86,99.8,0,36089,93.8,157429,164617,0.8
211333,2114210,211430,4,86,99.8,0,35066,93.8,157455,164638,0.8
211334,2114220,211431,4,86,99.8,0,33919,93.8,157451,164707,0.8
211335,2114230,211432,4,86,99.8,0,32828,93.8,157505,164739,0.8
211336,2114240,211433,4,86,99.8,0,31671,93.8,157510,164772,0.8
211337,2114250,211434,4,86,99.8,0,30450,93.8,157541,164794,0.8
211338,2114260,211435,4,86,99.8,0,29224,93.8,157547,164833,0.8
211339,2114270,211436,4,86,99.8,0,27995,93.8,157570,164873,0.8
211340,2114280,211437,4,86,99.8,0,26761,93.8,157583,164918,0.8
211341,2114290,211438,4,86,99.8,0,25525,93.8,157624,164951,0.8
211342,2114300,211439,4,86,99.8,0,24285,93.8,157631,164978,0.8
211343,2114310,211440,4,86,99.8,0,23104,93.8,157626,165037,0.8
211344,2114320,211441,4,86,99.8,0,21983,93.8,157670,165065,0.8
211345,2114330,211442,4,86,99.8,0,20798,93.8,157675,165099,0.8
211346,2114340,211443,4,86,99.8,0,19734,93.8,157704,165158,0.8
211347,2114350,211444,4,86,99.8,0,18669,93.8,157722,165187,0.8
211348,2114360,211445,4,86,99.8,0,17665,93.8,157739,165209,0.8
211349,2114370,211446,4,86,99.8,0,16722,93.8,157730,165229,0.8
211350,2114380,211447,4,86,99.8,0,15778,93.8,157746,165237,0.8
211351,2114390,211448,4,86,99.8,0,14834,93.8,157716,165168,0.8
211352,2114400,211449,4,86,99.8,0,13951,93.8,157666,165085,0.8
211353,2114410,211450,4,86,99.8,0,13131,93.8,157612,164935,0.8
211354,2114420,211451,4,86,99.8,0,12434,93.8,157512,164762,0.8
211355,2114430,211452,4,86,99.8,0,11925,93.8,157403,164587,0.8
211356,2114440,211453,4,86,99.8,0,11788,93.8,157345,164422,0.8
211357,2114450,211454,4,86,99.8,0,11901,93.8,157270,164296,0.8
211358,2114460,211455,4,86,99.8,0,12449,93.8,157219,164188,0.8
211359,2114470,211456,4,86,99.8,0,13496,93.8,157186,164113,0.8
211360,2114480,211457,4,86,99.8,0,15104,93.8,157153,164051,0.8
211361,2114490,211458,4,86,99.8,0,17212,93.8,157135,164001,0.8
211362,2114500,211459,4,86,99.8,0,19759,93.8,157134,163992,0.8
211363,2114510,211460,4,86,99.8,0,22811,93.8,157112,163926,0.8
211364,2114520,211461,4,86,99.8,0,26057,93.8,157092,163888,0.8
211365,2114530,211462,4,86,99.8,0,29563,93.8,157070,163853,0.8
211366,2114540,211463,4,86,99.8,0,33208,93.8,157054,163843,0.8
211367,2114550,211464,4,86,99.8,0,36865,93.8,157072,163836,0.8
211368,2114560,211465,4,86,99.8,0,40344,93.8,157034,163781,0.8
211369,2114570,211466,4,86,99.8,0,43642,93.8,157027,163766,0.8
211370,2114580,211467,4,86,99.8,0,46566,93.8,157009,163774,0.8
211371,2114590,211468,4,86,99.8,0,49240,93.8,157027,163769,0.8
211372,2114600,211469,4,86,99.8,0,51472,93.8,157016,163791,0.8
211373,2114610,211470,4,86,99.8,0,53260,93.8,157034,163812,0.8
211374,2114620,211471,4,86,99.8,0,54668,93.8,157081,163856,0.8
211375,2114630,211472,4,86,99.8,0,55631,93.8,157109,163903,0.8
211376,2114640,211473,4,86,99.8,0,56149,93.8,157130,163953,0.8
211377,2114650,211474,4,86,99.8,0,56349,93.8,157129,163997,0.8
211378,2114660,211475,4,86,99.8,0,56231,93.8,157161,164017,0.8
211379,2114670,211476,4,86,99.8,8,55733,93.8,157167,164036,0.8
211380,2114680,211477,4,86,99.8,0,54980,93.8,157176,164082,0.8
211381,2114690,211478,4,86,99.8,0,53910,93.8,157179,164110,0.8
211382,2114700,211479,4,86,99.8,0,52712,93.8,157228,164146,0.8
211383,2114710,211480,4,86,99.8,0,51324,93.8,157193,164144,0.8
211384,2114720,211481,4,86,99.8,0,49807,93.8,157240,164181,0.8
211385,2114730,211482,4,86,99.8,0,48290,93.8,157220,164163,0.8
211386,2114740,211483,4,86,99.8,0,46771,93.8,157256,164220,0.8
211387,2114750,211484,4,86,99.8,0,45250,93.8,157249,164247,0.8
211388,2114760,211485,4,86,99.8,0,43791,93.8,157275,164278,0.8
211389,2114770,211486,4,86,99.8,0,42458,93.8,157297,164306,0.8
211390,2114780,211487,4,86,99.8,0,41186,93.8,157301,164348,0.8
211391,2114790,211488,4,86,99.8,0,39976,93.8,157325,164398,0.8
211392,2114800,211489,4,86,99.8,0,38827,93.8,157328,164447,0.8
211393,2114810,211490,4,86,99.8,0,37804,93.8,157375,164469,0.8
211394,2114820,211491,4,86,99.8,0,36777,93.8,157387,164485,0.8
211395,2114830,211492,4,86,99.8,0,35812,93.8,157403,164549,0.8
211396,2114840,211493,4,86,99.8,0,34909,93.8,157446,164592,0.8
211397,2114850,211494,4,86,99.8,0,34003,93.8,157446,164641,0.8
211398,2114860,211495,4,86,99.8,0,33028,93.8,157474,164665,0.8
211399,2114870,211496,4,86,99.8,0,32114,93.8,157484,164734,0.8
211400,2114880,211497,4,86,99.8,0,31132,93.8,157502,164738,0.8
211401,2114890,211498,4,86,99.8,0,30015,93.8,157521,164774,0.8
211402,2114900,211499,4,86,99.8,0,28894,93.8,157556,164831,0.8
211403,2114910,211500,4,86,99.8,0,27769,93.8,157543,164854,0.8
211404,2114920,211501,4,86,99.8,0,26642,93.8,157582,164906,0.8
211405,2114930,211502,4,86,99.8,0,25511,93.8,157589,164904,0.8
211406,2114940,211503,4,86,99.8,0,24312,93.8,157585,164950,0.8
211407,2114950,211504,4,86,99.8,0,23110,93.8,157611,164987,0.8
211408,2114960,211505,4,86,99.8,0,21972,93.8,157611,165022,0.8
211409,2114970,211506,4,86,99.8,0,20833,93.8,157657,165051,0.8
211410,2114980,211507,4,86,99.8,0,19625,93.8,157668,165095,0.8
211411,2114990,211508,4,86,99.8,0,18549,93.8,157701,165152,0.8
211412,2115000,211509,4,86,99.8,0,17405,93.8,157726,165212,0.8
211413,2115010,211510,4,86,99.8,0,16326,93.8,157718,165198,0.8
211414,2115020,211511,4,86,99.8,0,15314,93.8,157748,165290,0.8
211415,2115030,211512,4,86,99.8,0,14434,93.8,157762,165310,0.8
211416,2115040,211513,4,86,99.8,0,13421,93.8,157791,165316,0.8
211417,2115050,211514,4,86,99.8,0,12475,93.8,157819,165363,0.8
211418,2115060,211515,4,86,99.8,0,11462,93.8,157799,165400,0.8
211419,2115070,211516,4,86,99.8,0,10583,93.8,157799,165402,0.8
211420,2115080,211517,4,86,99.8,0,9704,93.8,157794,165376,0.8
211421,2115090,211518,4,86,99.8,0,8827,93.8,157730,165271,0.8
211422,2115100,211519,4,86,99.8,0,7950,93.8,157685,165130,0.8
211423,2115110,211520,4,86,99.8,0,7274,93.8,157606,164966,0.8
211424,2115120,211521,4,86,99.8,0,6733,93.8,157539,164823,0.8
211425,2115130,211522,4,86,99.8,0,6460,93.8,157463,164623,0.8
211426,2115140,211523,4,86,99.8,0,6522,93.8,157359,164461,0.8
211427,2115150,211524,4,86,99.8,0,7051,93.8,157292,164390,0.8
211428,2115160,211525,4,86,99.8,0,8116,93.8,157281,164275,0.8
211429,2115170,211526,4,86,99.8,0,9714,93.8,157239,164191,0.8
211430,2115180,211527,4,86,99.8,0,11848,93.8,157222,164157,0.8
211431,2115190,211528,4,86,99.8,0,14584,93.8,157196,164079,0.8
211432,2115200,211529,4,86,99.8,0,17791,93.8,157174,164055,0.8
211433,2115210,211530,4,86,99.8,0,21270,93.8,157129,164033,0.8
211434,2115220,211531,4,86,99.8,0,25092,93.8,157141,163996,0.8
211435,2115230,211532,4,86,99.8,0,29058,93.8,157118,163960,0.8
211436,2115240,211533,4,86,99.8,0,33105,93.8,157094,163955,0.8
211437,2115250,211534,4,86,99.8,0,37031,93.8,157101,163917,0.8
211438,2115260,211535,4,86,99.8,0,40766,93.8,157064,163849,0.8
211439,2115270,211536,4,86,99.8,0,44238,93.8,157062,163851,0.8
211440,2115280,211537,4,86,99.8,0,47308,93.8,157059,163858,0.8
211441,2115290,211538,4,86,99.8,0,50040,93.8,157081,163881,0.8
211442,2115300,211539,4,86,99.8,0,52298,93.8,157092,163886,0.8
211443,2115310,211540,4,86,99.8,0,54080,93.8,157096,163922,0.8
211444,2115320,211541,4,86,99.8,0,55385,93.8,157129,163974,0.8
211445,2115330,211542,4,86,99.8,0,56348,93.8,157158,164014,0.8
211446,2115340,211543,4,86,99.8,0,56834,93.8,157169,164037,0.8
211447,2115350,211544,4,86,99.8,0,56911,93.8,157213,164123,0.8
211448,2115360,211545,4,86,99.8,8,56647,93.8,157198,164110,0.8
211449,2115370,211546,4,86,99.8,0,56043,93.8,157215,164167,0.8
211450,2115380,211547,4,86,99.8,0,55165,93.8,157256,164202,0.8
211451,2115390,211548,4,86,99.8,0,54084,93.8,157240,164225,0.8
211452,2115400,211549,4,86,99.8,0,52730,93.8,157242,164213,0.8
211453,2115410,211550,4,86,99.8,0,51239,93.8,157232,164220,0.8
211454,2115420,211551,4,86,99.8,0,49680,93.8,157275,164282,0.8
211455,2115430,211552,4,86,99.8,0,47982,93.8,157270,164257,0.8
211456,2115440,211553,4,86,99.8,0,46420,93.8,157265,164298,0.8
211457,2115450,211554,4,86,99.8,0,44787,93.8,157267,164331,0.8
211458,2115460,211555,4,86,99.8,0,43289,93.8,157301,164393,0.8
211459,2115470,211556,4,86,99.8,0,41926,93.8,157328,164404,0.8
211460,2115480,211557,4,86,99.8,0,40629,93.8,157366,164466,0.8
211461,2115490,211558,4,86,99.8,0,39398,93.8,157387,164513,0.8
211462,2115500,211559,4,86,99.8,0,38232,93.8,157396,164546,0.8
211463,2115510,211560,4,86,99.8,0,37202,93.8,157417,164590,0.8
211464,2115520,211561,4,86,99.8,0,36168,93.8,157449,164618,0.8
211465,2115530,211562,4,86,99.8,0,35201,93.8,157464,164662,0.8
211466,2115540,211563,4,86,99.8,0,34230,93.8,157471,164689,0.8
211467,2115550,211564,4,86,99.8,0,33256,93.8,157492,164729,0.8
211468,2115560,211565,4,86,99.8,0,32207,93.8,157536,164789,0.8
211469,2115570,211566,4,86,99.8,0,31155,93.8,157541,164811,0.8
211470,2115580,211567,4,86,99.8,0,30099,93.8,157544,164805,0.8
211471,2115590,211568,4,86,99.8,0,28969,93.8,157550,164885,0.8
211472,2115600,211569,4,86,99.8,0,27766,93.8,157581,164908,0.8
211473,2115610,211570,4,86,99.8,0,26629,93.8,157580,164935,0.8
211474,2115620,211571,4,86,99.8,0,25348,93.8,157602,164988,0.8
211475,2115630,211572,4,86,99.8,0,24135,93.8,157616,165011,0.8
211476,2115640,211573,4,86,99.8,0,22848,93.8,157638,165049,0.8
211477,2115650,211574,4,86,99.8,0,21630,93.8,157670,165099,0.8
211478,2115660,211575,4,86,99.8,0,20480,93.8,157693,165120,0.8
211479,2115670,211576,4,86,99.8,0,19188,93.8,157712,165149,0.8
211480,2115680,211577,4,86,99.8,0,18035,93.8,157716,165192,0.8
211481,2115690,211578,4,86,99.8,0,16882,93.8,157730,165218,0.8
211482,2115700,211579,4,86,99.8,0,15799,93.8,157751,165289,0.8
211483,2115710,211580,4,86,99.8,0,14716,93.8,157767,165335,0.8
211484,2115720,211581,4,86,99.8,0,13704,93.8,157811,165340,0.8
211485,2115730,211582,4,86,99.8,0,12691,93.8,157822,165392,0.8
211486,2115740,211583,4,86,99.8,0,11679,93.8,157817,165427,0.8
211487,2115750,211584,4,86,99.8,0,10667,93.8,157869,165444,0.8
211488,2115760,211585,4,86,99.8,0,9728,93.8,157872,165495,0.8
211489,2115770,211586,4,86,99.8,0,8789,93.8,157860,165454,0.8
211490,2115780,211587,4,86,99.8,0,7850,93.8,157818,165405,0.8
211491,2115790,211588,4,86,99.8,0,6985,93.8,157769,165281,0.8
211492,2115800,211589,4,86,99.8,0,6121,93.8,157600,165116,0.8
211493,2115810,211590,4,86,99.8,0,5401,93.8,157614,164927,0.8
211494,2115820,211591,4,86,99.8,0,4968,93.8,157519,164800,0.8
211495,2115830,211592,4,86,99.8,0,4822,93.8,157428,164610,0.8
211496,2115840,211593,4,86,99.8,0,5106,93.8,157358,164466,0.8
211497,2115850,211594,4,86,99.8,0,5962,93.8,157298,164370,0.8
211498,2115860,211595,4,86,99.8,0,7389,93.8,157282,164288,0.8
211499,2115870,211596,4,86,99.8,0,9388,93.8,157243,164217,0.8
211500,2115880,211597,4,86,99.8,0,12031,93.8,157234,164158,0.8
211501,2115890,211598,4,86,99.8,0,15247,93.8,157192,164110,0.8
211502,2115900,211599,4,86,99.8,0,18967,93.8,157055,164069,0.8
211503,2115910,211600,4,86,99.8,0,23052,93.8,157169,164052,0.8
211504,2115920,211601,4,86,99.8,0,27361,93.8,157145,163993,0.8
211505,2115930,211602,4,86,99.8,0,31828,93.8,157152,163985,0.8
211506,2115940,211603,4,86,99.8,0,36239,93.8,157112,163912,0.8
211507,2115950,211604,4,86,99.8,0,40519,93.8,157097,163897,0.8
211508,2115960,211605,4,86,99.8,0,44519,93.8,157090,163890,0.8
211509,2115970,211606,4,86,99.8,0,48162,93.8,157088,163842,0.8
211510,2115980,211607,4,86,99.8,0,51372,93.8,157088,163852,0.8
211511,2115990,211608,4,86,99.8,0,54074,93.8,157090,163859,0.8
211512,2116000,211609,4,86,99.8,0,56339,93.8,157088,163877,0.8
211513,2116010,211610,4,86,99.8,0,58092,93.8,157107,163919,0.8
211514,2116020,211611,4,86,99.8,0,59481,93.8,157113,163939,0.8
211515,2116030,211612,4,86,99.8,0,60358,93.8,157139,163967,0.8
211516,2116040,211613,4,86,99.8,0,60798,93.8,157169,164056,0.8
211517,2116050,211614,4,86,99.8,0,60873,93.8,157215,164095,0.8
211518,2116060,211615,4,86,99.8,8,60512,93.8,157204,164137,0.8
211519,2116070,211616,4,86,99.8,0,59861,93.8,157233,164146,0.8
211520,2116080,211617,4,86,99.8,0,58847,93.8,157226,164167,0.8
211521,2116090,211618,4,86,99.8,0,57616,93.8,157250,164205,0.8
211522,2116100,211619,4,86,99.8,0,56167,93.8,157251,164205,0.8
211523,2116110,211620,4,86,99.8,0,54574,93.8,157236,164200,0.8
211524,2116120,211621,4,86,99.8,0,52909,93.8,157248,164241,0.8
211525,2116130,211622,4,86,99.8,0,51171,93.8,157263,164267,0.8
211526,2116140,211623,4,86,99.8,0,49505,93.8,157253,164276,0.8
211527,2116150,211624,4,86,99.8,0,47911,93.8,157279,164338,0.8
211528,2116160,211625,4,86,99.8,0,46316,93.8,157316,164364,0.8
211529,2116170,211626,4,86,99.8,0,44865,93.8,157333,164408,0.8
211530,2116180,211627,4,86,99.8,0,43485,93.8,157334,164425,0.8
211531,2116190,211628,4,86,99.8,0,42176,93.8,157345,164478,0.8
211532,2116200,211629,4,86,99.8,0,41012,93.8,157379,164519,0.8
211533,2116210,211630,4,86,99.8,0,39845,93.8,157406,164567,0.8
211534,2116220,211631,4,86,99.8,0,38748,93.8,157429,164590,0.8
211535,2116230,211632,4,86,99.8,0,37723,93.8,157426,164629,0.8
211536,2116240,211633,4,86,99.8,0,36620,93.8,157452,164667,0.8
211537,2116250,211634,4,86,99.8,0,35587,93.8,157477,164709,0.8
211538,2116260,211635,4,86,99.8,0,34477,93.8,157485,164744,0.8
211539,2116270,211636,4,86,99.8,0,33363,93.8,157528,164786,0.8
211540,2116280,211637,4,86,99.8,0,32170,93.8,157521,164806,0.8
211541,2116290,211638,4,86,99.8,0,31047,93.8,157548,164846,0.8
211542,2116300,211639,4,86,99.8,0,29770,93.8,157546,164886,0.8
211543,2116310,211640,4,86,99.8,0,28489,93.8,157567,164922,0.8
211544,2116320,211641,4,86,99.8,0,27204,93.8,157578,164945,0.8
211545,2116330,211642,4,86,99.8,0,25840,93.8,157598,164988,0.8
211546,2116340,211643,4,86,99.8,0,24398,93.8,157632,165026,0.8
211547,2116350,211644,4,86,99.8,0,23103,93.8,157663,165065,0.8
211548,2116360,211645,4,86,99.8,0,21806,93.8,157655,165126,0.8
211549,2116370,211646,4,86,99.8,0,20507,93.8,157687,165136,0.8
211550,2116380,211647,4,86,99.8,0,19205,93.8,157686,165150,0.8
211551,2116390,211648,4,86,99.8,0,17978,93.8,157724,165204,0.8
211552,2116400,211649,4,86,99.8,0,16750,93.8,157729,165260,0.8
211553,2116410,211650,4,86,99.8,0,15522,93.8,157755,165297,0.8
211554,2116420,211651,4,86,99.8,0,14368,93.8,157787,165314,0.8
211555,2116430,211652,4,86,99.8,0,13215,93.8,157814,165374,0.8
211556,2116440,211653,4,86,99.8,0,12061,93.8,157798,165390,0.8
211557,2116450,211654,4,86,99.8,0,10984,93.8,157798,165406,0.8
211558,2116460,211655,4,86,99.8,0,9831,93.8,157788,165386,0.8
211559,2116470,211656,4,86,99.8,0,8832,93.8,157770,165286,0.8
211560,2116480,211657,4,86,99.8,0,7909,93.8,157675,165174,0.8
211561,2116490,211658,4,86,99.8,0,7064,93.8,157631,165026,0.8
211562,2116500,211659,4,86,99.8,0,6296,93.8,157554,164850,0.8
211563,2116510,211660,4,86,99.8,0,5834,93.8,157467,164676,0.8
211564,2116520,211661,4,86,99.8,0,5753,93.8,157384,164527,0.8
211565,2116530,211662,4,86,99.8,0,6207,93.8,157322,164391,0.8
211566,2116540,211663,4,86,99.8,0,7193,93.8,157247,164266,0.8
211567,2116550,211664,4,86,99.8,0,8865,93.8,157226,164153,0.8
211568,2116560,211665,4,86,99.8,0,11069,93.8,157173,164130,0.8
211569,2116570,211666,4,86,99.8,0,13884,93.8,157150,164038,0.8
211570,2116580,211667,4,86,99.8,0,17387,93.8,157124,164006,0.8
211571,2116590,211668,4,86,99.8,0,21353,93.8,157117,164008,0.8
211572,2116600,211669,4,86,99.8,0,25709,93.8,157122,163946,0.8
211573,2116610,211670,4,86,99.8,0,30385,93.8,157105,163898,0.8
211574,2116620,211671,4,86,99.8,0,35154,93.8,157085,163866,0.8
211575,2116630,211672,4,86,99.8,0,39862,93.8,157066,163847,0.8
211576,2116640,211673,4,86,99.8,0,44349,93.8,157039,163797,0.8
211577,2116650,211674,4,86,99.8,0,48612,93.8,157025,163768,0.8
211578,2116660,211675,4,86,99.8,0,52491,93.8,157005,163755,0.8
211579,2116670,211676,4,86,99.8,0,55906,93.8,157004,163715,0.8
211580,2116680,211677,4,86,99.8,0,58776,93.8,157010,163768,0.8
211581,2116690,211678,4,86,99.8,0,61179,93.8,157022,163722,0.8
211582,2116700,211679,4,86,99.8,0,62258,93.8,157019,163823,0.8
211583,2116710,211680,4,86,99.8,0,62258,93.8,157075,163832,0.8
211584,2116720,211681,4,86,99.8,0,62258,93.8,157081,163876,0.8
211585,2116730,211682,4,86,99.8,0,62258,93.8,157093,163920,0.8
211586,2116740,211683,4,86,99.8,0,62258,93.8,157123,163988,0.8
211587,2116750,211684,4,86,99.8,8,61983,93.8,157143,164013,0.8
211588,2116760,211685,4,86,99.8,0,61435,93.8,157144,164022,0.8
211589,2116770,211686,4,86,99.8,0,60544,93.8,157166,164023,0.8
211590,2116780,211687,4,86,99.8,0,59380,93.8,157153,164056,0.8
211591,2116790,211688,4,86,99.8,0,58080,93.8,157154,164062,0.8
211592,2116800,211689,4,86,99.8,0,56575,93.8,157178,164019,0.8
211593,2116810,211690,4,86,99.8,0,55003,93.8,157201,164095,0.8
211594,2116820,211691,4,86,99.8,0,53500,93.8,157216,164101,0.8
211595,2116830,211692,4,86,99.8,0,51860,93.8,157191,164141,0.8
211596,2116840,211693,4,86,99.8,0,50357,93.8,157244,164156,0.8
211597,2116850,211694,4,86,99.8,0,48923,93.8,157215,164212,0.8
211598,2116860,211695,4,86,99.8,0,47556,93.8,157233,164215,0.8
211599,2116870,211696,4,86,99.8,0,46257,93.8,157271,164266,0.8
211600,2116880,211697,4,86,99.8,0,45095,93.8,157283,164326,0.8
211601,2116890,211698,4,86,99.8,0,43931,93.8,157298,164352,0.8
211602,2116900,211699,4,86,99.8,0,42904,93.8,157321,164373,0.8
211603,2116910,211700,4,86,99.8,0,41875,93.8,157324,164414,0.8
211604,2116920,211701,4,86,99.8,0,40913,93.8,157371,164469,0.8
211605,2116930,211702,4,86,99.8,0,39949,93.8,157349,164496,0.8
211606,2116940,211703,4,86,99.8,0,38912,93.8,157394,164503,0.8
211607,2116950,211704,4,86,99.8,0,37943,93.8,157398,164548,0.8
211608,2116960,211705,4,86,99.8,0,36901,93.8,157404,164623,0.8
211609,2116970,211706,4,86,99.8,0,35785,93.8,157438,164637,0.8
211610,2116980,211707,4,86,99.8,0,34595,93.8,157465,164670,0.8
211611,2116990,211708,4,86,99.8,0,33401,93.8,157461,164692,0.8
211612,2117000,211709,4,86,99.8,0,32202,93.8,157498,164750,0.8
211613,2117010,211710,4,86,99.8,0,30928,93.8,157497,164773,0.8
211614,2117020,211711,4,86,99.8,0,29650,93.8,157527,164820,0.8
211615,2117030,211712,4,86,99.8,0,28367,93.8,157529,164848,0.8
211616,2117040,211713,4,86,99.8,0,27080,93.8,157574,164896,0.8
211617,2117050,211714,4,86,99.8,0,25789,93.8,157576,164927,0.8
211618,2117060,211715,4,86,99.8,0,24567,93.8,157591,164956,0.8
211619,2117070,211716,4,86,99.8,0,23271,93.8,157629,164993,0.8
211620,2117080,211717,4,86,99.8,0,22043,93.8,157629,165048,0.8
211621,2117090,211718,4,86,99.8,0,20813,93.8,157655,165078,0.8
211622,2117100,211719,4,86,99.8,0,19653,93.8,157667,165133,0.8
211623,2117110,211720,4,86,99.8,0,18491,93.8,157691,165129,0.8
211624,2117120,211721,4,86,99.8,0,17328,93.8,157688,165178,0.8
211625,2117130,211722,4,86,99.8,0,16165,93.8,157728,165204,0.8
211626,2117140,211723,4,86,99.8,0,15000,93.8,157727,165195,0.8
211627,2117150,211724,4,86,99.8,0,13907,93.8,157710,165155,0.8
211628,2117160,211725,4,86,99.8,0,12885,93.8,157673,165073,0.8
211629,2117170,211726,4,86,99.8,0,12008,93.8,157598,164906,0.8
211630,2117180,211727,4,86,99.8,0,11275,93.8,157512,164739,0.8
211631,2117190,211728,4,86,99.8,0,10687,93.8,157424,164568,0.8
211632,2117200,211729,4,86,99.8,0,10315,93.8,157324,164387,0.8
211633,2117210,211730,4,86,99.8,0,10376,93.8,157242,164246,0.8
211634,2117220,211731,4,86,99.8,0,10943,93.8,157171,164122,0.8
211635,2117230,211732,4,86,99.8,0,12087,93.8,157146,164039,0.8
211636,2117240,211733,4,86,99.8,0,13954,93.8,157116,163931,0.8
211637,2117250,211734,4,86,99.8,0,16400,93.8,157087,163865,0.8
211638,2117260,211735,4,86,99.8,0,19355,93.8,157060,163820,0.8
211639,2117270,211736,4,86,99.8,0,22895,93.8,157043,163752,0.8
211640,2117280,211737,4,86,99.8,0,26878,93.8,156991,163685,0.8
211641,2117290,211738,4,86,99.8,0,31165,93.8,156980,163671,0.8
211642,2117300,211739,4,86,99.8,0,35686,93.8,156966,163638,0.8
211643,2117310,211740,4,86,99.8,0,40221,93.8,156937,163584,0.8
211644,2117320,211741,4,86,99.8,0,44767,93.8,156912,163525,0.8
211645,2117330,211742,4,86,99.8,0,49099,93.8,156902,163488,0.8
211646,2117340,211743,4,86,99.8,0,53068,93.8,156881,163462,0.8
211647,2117350,211744,4,86,99.8,0,56669,93.8,156862,163451,0.8
211648,2117360,211745,4,86,99.8,0,59828,93.8,156885,163426,0.8
211649,2117370,211746,4,86,99.8,0,62258,93.8,156852,163416,0.8
211650,2117380,211747,4,86,99.8,0,62258,93.8,156864,163429,0.8
211651,2117390,211748,4,86,99.8,0,62258,93.8,156878,163471,0.8
211652,2117400,211749,4,86,99.8,0,62258,93.8,156899,163507,0.8
211653,2117410,211750,4,86,99.8,0,62258,93.8,156932,163544,0.8
211654,2117420,211751,4,86,99.8,0,62141,93.8,156971,163589,0.8
211655,2117430,211752,4,86,99.8,0,61968,93.8,156977,163670,0.8
211656,2117440,211753,4,86,99.8,8,61794,93.8,156991,163677,0.8
211657,2117450,211754,4,86,99.8,0,61331,93.8,157024,163669,0.8
211658,2117460,211755,4,86,99.8,0,60636,93.8,156982,163702,0.8
211659,2117470,211756,4,86,99.8,0,59711,93.8,157020,163746,0.8
211660,2117480,211757,4,86,99.8,0,58613,93.8,157017,163726,0.8
211661,2117490,211758,4,86,99.8,0,57458,93.8,157023,163759,0.8
211662,2117500,211759,4,86,99.8,0,56189,93.8,157034,163783,0.8
211663,2117510,211760,4,86,99.8,0,54862,93.8,157028,163797,0.8
211664,2117520,211761,4,86,99.8,0,53478,93.8,157025,163806,0.8
211665,2117530,211762,4,86,99.8,0,52152,93.8,157037,163852,0.8
211666,2117540,211763,4,86,99.8,0,50884,93.8,157061,163871,0.8
211667,2117550,211764,4,86,99.8,0,49616,93.8,157090,163935,0.8
211668,2117560,211765,4,86,99.8,0,48464,93.8,157129,163947,0.8
211669,2117570,211766,4,86,99.8,0,47311,93.8,157135,163989,0.8
211670,2117580,211767,4,86,99.8,0,46215,93.8,157133,164032,0.8
211671,2117590,211768,4,86,99.8,0,45235,93.8,157143,164049,0.8
211672,2117600,211769,4,86,99.8,0,44195,93.8,157175,164101,0.8
211673,2117610,211770,4,86,99.8,0,43270,93.8,157202,164136,0.8
211674,2117620,211771,4,86,99.8,0,42285,93.8,157226,164204,0.8
211675,2117630,211772,4,86,99.8,0,41298,93.8,157245,164248,0.8
211676,2117640,211773,4,86,99.8,0,40308,93.8,157258,164291,0.8
211677,2117650,211774,4,86,99.8,0,39316,93.8,157257,164285,0.8
211678,2117660,211775,4,86,99.8,0,38322,93.8,157273,164336,0.8
211679,2117670,211776,4,86,99.8,0,37266,93.8,157295,164380,0.8
211680,2117680,211777,4,86,99.8,0,36206,93.8,157328,164429,0.8
211681,2117690,211778,4,86,99.8,0,35084,93.8,157340,164433,0.8
211682,2117700,211779,4,86,99.8,0,33957,93.8,157371,164480,0.8
211683,2117710,211780,4,86,99.8,0,32767,93.8,157375,164536,0.8
211684,2117720,211781,4,86,99.8,0,31572,93.8,157382,164561,0.8
211685,2117730,211782,4,86,99.8,0,30493,93.8,157389,164590,0.8
211686,2117740,211783,4,86,99.8,0,29229,93.8,157432,164629,0.8
211687,2117750,211784,4,86,99.8,0,28082,93.8,157449,164675,0.8
211688,2117760,211785,4,86,99.8,0,26931,93.8,157447,164689,0.8
211689,2117770,211786,4,86,99.8,0,25838,93.8,157468,164745,0.8
211690,2117780,211787,4,86,99.8,0,24741,93.8,157516,164780,0.8
211691,2117790,211788,4,86,99.8,0,23642,93.8,157518,164834,0.8
211692,2117800,211789,4,86,99.8,0,22601,93.8,157529,164855,0.8
211693,2117810,211790,4,86,99.8,0,21619,93.8,157572,164916,0.8
211694,2117820,211791,4,86,99.8,0,20634,93.8,157583,164929,0.8
211695,2117830,211792,4,86,99.8,0,19710,93.8,157578,164951,0.8
211696,2117840,211793,4,86,99.8,0,18783,93.8,157590,164967,0.8
211697,2117850,211794,4,86,99.8,0,17856,93.8,157561,164854,0.8
211698,2117860,211795,4,86,99.8,0,16928,93.8,157481,164714,0.8
211699,2117870,211796,4,86,99.8,0,16060,93.8,157402,164537,0.8
211700,2117880,211797,4,86,99.8,0,15375,93.8,157300,164366,0.8
211701,2117890,211798,4,86,99.8,0,14933,93.8,157228,164190,0.8
211702,2117900,211799,4,86,99.8,0,14796,93.8,157142,164034,0.8
211703,2117910,211800,4,86,99.8,0,15088,93.8,157092,163941,0.8
211704,2117920,211801,4,86,99.8,0,15807,93.8,157035,163833,0.8
211705,2117930,211802,4,86,99.8,0,17017,93.8,156983,163724,0.8
211706,2117940,211803,4,86,99.8,0,18780,93.8,156963,163666,0.8
211707,2117950,211804,4,86,99.8,0,21036,93.8,156947,163606,0.8
211708,2117960,211805,4,86,99.8,0,23788,93.8,156907,163544,0.8
211709,2117970,211806,4,86,99.8,0,26915,93.8,156884,163520,0.8
211710,2117980,211807,4,86,99.8,0,30360,93.8,156874,163465,0.8
211711,2117990,211808,4,86,99.8,0,34127,93.8,156839,163391,0.8
211712,2118000,211809,4,86,99.8,0,37907,93.8,156831,163386,0.8
211713,2118010,211810,4,86,99.8,0,41698,93.8,156810,163349,0.8
211714,2118020,211811,4,86,99.8,0,45310,93.8,156786,163310,0.8
211715,2118030,211812,4,86,99.8,0,48678,93.8,156754,163266,0.8
211716,2118040,211813,4,86,99.8,0,51799,93.8,156744,163239,0.8
211717,2118050,211814,4,86,99.8,0,54548,93.8,156775,163247,0.8
211718,2118060,211815,4,86,99.8,0,56860,93.8,156781,163211,0.8
211719,2118070,211816,4,86,99.8,0,58796,93.8,156769,163264,0.8
211720,2118080,211817,4,86,99.8,0,60418,93.8,156780,163307,0.8
211721,2118090,211818,4,86,99.8,0,61603,93.8,156819,163345,0.8
211722,2118100,211819,4,86,99.8,0,62135,93.8,156861,163401,0.8
211723,2118110,211820,4,86,99.8,0,62077,93.8,156862,163457,0.8
211724,2118120,211821,4,86,99.8,0,61898,93.8,156873,163504,0.8
211725,2118130,211822,4,86,99.8,8,61659,93.8,156900,163507,0.8
211726,2118140,211823,4,86,99.8,0,61181,93.8,156917,163540,0.8
211727,2118150,211824,4,86,99.8,0,60345,93.8,156909,163560,0.8
211728,2118160,211825,4,86,99.8,0,59330,93.8,156946,163597,0.8
211729,2118170,211826,4,86,99.8,0,58137,93.8,156928,163604,0.8
211730,2118180,211827,4,86,99.8,0,56826,93.8,156963,163628,0.8
211731,2118190,211828,4,86,99.8,0,55396,93.8,156964,163660,0.8
211732,2118200,211829,4,86,99.8,0,53906,93.8,156997,163676,0.8
211733,2118210,211830,4,86,99.8,0,52357,93.8,157006,163706,0.8
211734,2118220,211831,4,86,99.8,0,50748,93.8,156989,163721,0.8
211735,2118230,211832,4,86,99.8,0,49319,93.8,157029,163783,0.8
211736,2118240,211833,4,86,99.8,0,47949,93.8,157029,163800,0.8
211737,2118250,211834,4,86,99.8,0,46637,93.8,157043,163826,0.8
211738,2118260,211835,4,86,99.8,0,45385,93.8,157068,163879,0.8
211739,2118270,211836,4,86,99.8,0,44251,93.8,157069,163889,0.8
211740,2118280,211837,4,86,99.8,0,43177,93.8,157101,163971,0.8
211741,2118290,211838,4,86,99.8,0,42100,93.8,157105,163997,0.8
211742,2118300,211839,4,86,99.8,0,41081,93.8,157125,164035,0.8
211743,2118310,211840,4,86,99.8,0,40121,93.8,157163,164085,0.8
211744,2118320,211841,4,86,99.8,0,39158,93.8,157176,164121,0.8
211745,2118330,211842,4,86,99.8,0,38132,93.8,157210,164175,0.8
211746,2118340,211843,4,86,99.8,0,37103,93.8,157222,164182,0.8
211747,2118350,211844,4,86,99.8,0,36070,93.8,157230,164237,0.8
211748,2118360,211845,4,86,99.8,0,35035,93.8,157246,164283,0.8
211749,2118370,211846,4,86,99.8,0,33934,93.8,157277,164301,0.8
211750,2118380,211847,4,86,99.8,0,32829,93.8,157274,164337,0.8
211751,2118390,211848,4,86,99.8,0,31719,93.8,157312,164394,0.8
211752,2118400,211849,4,86,99.8,0,30544,93.8,157322,164410,0.8
211753,2118410,211850,4,86,99.8,0,29365,93.8,157349,164448,0.8
211754,2118420,211851,4,86,99.8,0,28181,93.8,157367,164481,0.8
211755,2118430,211852,4,86,99.8,0,26995,93.8,157364,164546,0.8
211756,2118440,211853,4,86,99.8,0,25867,93.8,157402,164596,0.8
211757,2118450,211854,4,86,99.8,0,24674,93.8,157423,164615,0.8
211758,2118460,211855,4,86,99.8,0,23540,93.8,157434,164630,0.8
211759,2118470,211856,4,86,99.8,0,22404,93.8,157469,164703,0.8
211760,2118480,211857,4,86,99.8,0,21329,93.8,157473,164741,0.8
211761,2118490,211858,4,86,99.8,0,20189,93.8,157503,164774,0.8
211762,2118500,211859,4,86,99.8,0,19173,93.8,157523,164823,0.8
211763,2118510,211860,4,86,99.8,0,18093,93.8,157548,164864,0.8
211764,2118520,211861,4,86,99.8,0,17012,93.8,157561,164887,0.8
211765,2118530,211862,4,86,99.8,0,15993,93.8,157545,164862,0.8
211766,2118540,211863,4,86,99.8,0,15037,93.8,157529,164828,0.8
211767,2118550,211864,4,86,99.8,0,14017,93.8,157489,164715,0.8
211768,2118560,211865,4,86,99.8,0,13123,93.8,157398,164594,0.8
211769,2118570,211866,4,86,99.8,0,12291,93.8,157322,164435,0.8
211770,2118580,211867,4,86,99.8,0,11712,93.8,157255,164250,0.8
211771,2118590,211868,4,86,99.8,0,11385,93.8,157168,164076,0.8
211772,2118600,211869,4,86,99.8,0,11499,93.8,157124,163981,0.8
211773,2118610,211870,4,86,99.8,0,11929,93.8,157049,163903,0.8
211774,2118620,211871,4,86,99.8,0,12863,93.8,157040,163802,0.8
211775,2118630,211872,4,86,99.8,0,14366,93.8,157001,163708,0.8
211776,2118640,211873,4,86,99.8,0,16376,93.8,156959,163668,0.8
211777,2118650,211874,4,86,99.8,0,18830,93.8,156941,163616,0.8
211778,2118660,211875,4,86,99.8,0,21731,93.8,156916,163561,0.8
211779,2118670,211876,4,86,99.8,0,25018,93.8,156894,163548,0.8
211780,2118680,211877,4,86,99.8,0,28568,93.8,156887,163511,0.8
211781,2118690,211878,4,86,99.8,0,32193,93.8,156883,163494,0.8
211782,2118700,211879,4,86,99.8,0,35832,93.8,156846,163457,0.8
211783,2118710,211880,4,86,99.8,0,39419,93.8,156850,163432,0.8
211784,2118720,211881,4,86,99.8,0,42822,93.8,156855,163407,0.8
211785,2118730,211882,4,86,99.8,0,45911,93.8,156850,163400,0.8
211786,2118740,211883,4,86,99.8,0,48683,93.8,156816,163359,0.8
211787,2118750,211884,4,86,99.8,0,51008,93.8,156838,163396,0.8
211788,2118760,211885,4,86,99.8,0,53012,93.8,156864,163412,0.8
211789,2118770,211886,4,86,99.8,0,54566,93.8,156863,163417,0.8
211790,2118780,211887,4,86,99.8,0,55734,93.8,156852,163493,0.8
211791,2118790,211888,4,86,99.8,0,56515,93.8,156897,163543,0.8
211792,2118800,211889,4,86,99.8,0,56845,93.8,156934,163598,0.8
211793,2118810,211890,4,86,99.8,0,56918,93.8,156975,163631,0.8
211794,2118820,211891,4,86,99.8,8,56605,93.8,156973,163675,0.8
211795,2118830,211892,4,86,99.8,0,55970,93.8,156996,163702,0.8
211796,2118840,211893,4,86,99.8,0,55142,93.8,157007,163724,0.8
211797,2118850,211894,4,86,99.8,0,53993,93.8,157023,163706,0.8
211798,2118860,211895,4,86,99.8,0,52714,93.8,157029,163732,0.8
211799,2118870,211896,4,86,99.8,0,51242,93.8,157008,163736,0.8
211800,2118880,211897,4,86,99.8,0,49706,93.8,157029,163780,0.8
211801,2118890,211898,4,86,99.8,0,48168,93.8,157039,163780,0.8
211802,2118900,211899,4,86,99.8,0,46629,93.8,157036,163808,0.8
211803,2118910,211900,4,86,99.8,0,45153,93.8,157087,163853,0.8
211804,2118920,211901,4,86,99.8,0,43739,93.8,157103,163891,0.8
211805,2118930,211902,4,86,99.8,0,42453,93.8,157116,163949,0.8
211806,2118940,211903,4,86,99.8,0,41230,93.8,157111,163967,0.8
211807,2118950,211904,4,86,99.8,0,40069,93.8,157144,164007,0.8
211808,2118960,211905,4,86,99.8,0,38970,93.8,157149,164051,0.8
211809,2118970,211906,4,86,99.8,0,37933,93.8,157168,164089,0.8
211810,2118980,211907,4,86,99.8,0,36894,93.8,157200,164136,0.8
211811,2118990,211908,4,86,99.8,0,35917,93.8,157227,164187,0.8
211812,2119000,211909,4,86,99.8,0,34936,93.8,157247,164208,0.8
211813,2119010,211910,4,86,99.8,0,34018,93.8,157265,164249,0.8
211814,2119020,211911,4,86,99.8,0,33031,93.8,157285,164297,0.8
211815,2119030,211912,4,86,99.8,0,31974,93.8,157273,164325,0.8
211816,2119040,211913,4,86,99.8,0,30912,93.8,157311,164384,0.8
211817,2119050,211914,4,86,99.8,0,29781,93.8,157325,164400,0.8
211818,2119060,211915,4,86,99.8,0,28579,93.8,157356,164434,0.8
211819,2119070,211916,4,86,99.8,0,27440,93.8,157338,164457,0.8
211820,2119080,211917,4,86,99.8,0,26231,93.8,157369,164494,0.8
211821,2119090,211918,4,86,99.8,0,25019,93.8,157395,164537,0.8
211822,2119100,211919,4,86,99.8,0,23804,93.8,157392,164574,0.8
211823,2119110,211920,4,86,99.8,0,22586,93.8,157430,164598,0.8
211824,2119120,211921,4,86,99.8,0,21433,93.8,157449,164636,0.8
211825,2119130,211922,4,86,99.8,0,20278,93.8,157497,164706,0.8
211826,2119140,211923,4,86,99.8,0,19189,93.8,157524,164743,0.8
211827,2119150,211924,4,86,99.8,0,18098,93.8,157520,164779,0.8
211828,2119160,211925,4,86,99.8,0,17007,93.8,157538,164808,0.8
211829,2119170,211926,4,86,99.8,0,15914,93.8,157547,164852,0.8
211830,2119180,211927,4,86,99.8,0,14889,93.8,157577,164893,0.8
211831,2119190,211928,4,86,99.8,0,13930,93.8,157587,164919,0.8
211832,2119200,211929,4,86,99.8,0,12904,93.8,157611,164965,0.8
211833,2119210,211930,4,86,99.8,0,11878,93.8,157624,164981,0.8
211834,2119220,211931,4,86,99.8,0,10920,93.8,157615,164972,0.8
211835,2119230,211932,4,86,99.8,0,9962,93.8,157569,164917,0.8
211836,2119240,211933,4,86,99.8,0,9073,93.8,157510,164785,0.8
211837,2119250,211934,4,86,99.8,0,8252,93.8,157464,164667,0.8
211838,2119260,211935,4,86,99.8,0,7567,93.8,157399,164490,0.8
211839,2119270,211936,4,86,99.8,0,7018,93.8,157323,164316,0.8
211840,2119280,211937,4,86,99.8,0,6809,93.8,157239,164185,0.8
211841,2119290,211938,4,86,99.8,0,6938,93.8,157158,164051,0.8
211842,2119300,211939,4,86,99.8,0,7541,93.8,157119,163943,0.8
211843,2119310,211940,4,86,99.8,0,8753,93.8,157068,163857,0.8
211844,2119320,211941,4,86,99.8,0,10574,93.8,157060,163780,0.8
211845,2119330,211942,4,86,99.8,0,12869,93.8,157022,163766,0.8
211846,2119340,211943,4,86,99.8,0,15776,93.8,156999,163695,0.8
211847,2119350,211944,4,86,99.8,0,19092,93.8,156978,163652,0.8
211848,2119360,211945,4,86,99.8,0,22685,93.8,156975,163626,0.8
211849,2119370,211946,4,86,99.8,0,26559,93.8,156972,163615,0.8
211850,2119380,211947,4,86,99.8,0,30512,93.8,156945,163603,0.8
211851,2119390,211948,4,86,99.8,0,34479,93.8,156946,163543,0.8
211852,2119400,211949,4,86,99.8,0,38254,93.8,156916,163502,0.8
211853,2119410,211950,4,86,99.8,0,41833,93.8,156923,163479,0.8
211854,2119420,211951,4,86,99.8,0,45076,93.8,156909,163484,0.8
211855,2119430,211952,4,86,99.8,0,47911,93.8,156882,163443,0.8
211856,2119440,211953,4,86,99.8,0,50403,93.8,156882,163474,0.8
211857,2119450,211954,4,86,99.8,0,52483,93.8,156925,163498,0.8
211858,2119460,211955,4,86,99.8,0,54081,93.8,156942,163533,0.8
211859,2119470,211956,4,86,99.8,0,55333,93.8,156940,163587,0.8
211860,2119480,211957,4,86,99.8,0,56171,93.8,156964,163619,0.8
211861,2119490,211958,4,86,99.8,0,56594,93.8,156993,163648,0.8
211862,2119500,211959,4,86,99.8,0,56602,93.8,156994,163699,0.8
211863,2119510,211960,4,86,99.8,8,56266,93.8,157010,163759,0.8
211864,2119520,211961,4,86,99.8,0,55653,93.8,157041,163776,0.8
211865,2119530,211962,4,86,99.8,0,54764,93.8,157057,163772,0.8
211866,2119540,211963,4,86,99.8,0,53669,93.8,157057,163779,0.8
211867,2119550,211964,4,86,99.8,0,52366,93.8,157060,163820,0.8
211868,2119560,211965,4,86,99.8,0,50925,93.8,157056,163819,0.8
211869,2119570,211966,4,86,99.8,0,49414,93.8,157105,163866,0.8
211870,2119580,211967,4,86,99.8,0,47832,93.8,157091,163896,0.8
211871,2119590,211968,4,86,99.8,0,46249,93.8,157117,163942,0.8
211872,2119600,211969,4,86,99.8,0,44734,93.8,157134,163950,0.8
211873,2119610,211970,4,86,99.8,0,43216,93.8,157146,163989,0.8
211874,2119620,211971,4,86,99.8,0,41835,93.8,157168,164023,0.8
211875,2119630,211972,4,86,99.8,0,40451,93.8,157203,164036,0.8
211876,2119640,211973,4,86,99.8,0,39273,93.8,157191,164075,0.8
211877,2119650,211974,4,86,99.8,0,38022,93.8,157227,164105,0.8
211878,2119660,211975,4,86,99.8,0,36908,93.8,157246,164165,0.8
211879,2119670,211976,4,86,99.8,0,35931,93.8,157258,164213,0.8
211880,2119680,211977,4,86,99.8,0,34880,93.8,157253,164226,0.8
211881,2119690,211978,4,86,99.8,0,33967,93.8,157276,164282,0.8
211882,2119700,211979,4,86,99.8,0,32979,93.8,157318,164319,0.8
211883,2119710,211980,4,86,99.8,0,31917,93.8,157324,164360,0.8
211884,2119720,211981,4,86,99.8,0,30993,93.8,157347,164383,0.8
211885,2119730,211982,4,86,99.8,0,29852,93.8,157355,164427,0.8
211886,2119740,211983,4,86,99.8,0,28707,93.8,157378,164456,0.8
211887,2119750,211984,4,86,99.8,0,27559,93.8,157405,164499,0.8
211888,2119760,211985,4,86,99.8,0,26407,93.8,157417,164529,0.8
211889,2119770,211986,4,86,99.8,0,25181,93.8,157445,164599,0.8
211890,2119780,211987,4,86,99.8,0,23880,93.8,157446,164611,0.8
211891,2119790,211988,4,86,99.8,0,22647,93.8,157500,164642,0.8
211892,2119800,211989,4,86,99.8,0,21413,93.8,157499,164707,0.8
211893,2119810,211990,4,86,99.8,0,20176,93.8,157522,164739,0.8
211894,2119820,211991,4,86,99.8,0,19010,93.8,157533,164756,0.8
211895,2119830,211992,4,86,99.8,0,17770,93.8,157538,164806,0.8
211896,2119840,211993,4,86,99.8,0,16530,93.8,157579,164853,0.8
211897,2119850,211994,4,86,99.8,0,15360,93.8,157598,164882,0.8
211898,2119860,211995,4,86,99.8,0,14118,93.8,157632,164916,0.8
211899,2119870,211996,4,86,99.8,0,12948,93.8,157628,164944,0.8
211900,2119880,211997,4,86,99.8,0,11850,93.8,157666,165000,0.8
211901,2119890,211998,4,86,99.8,0,10752,93.8,157658,165031,0.8
211902,2119900,211999,4,86,99.8,0,9727,93.8,157677,165058,0.8
211903,2119910,212000,4,86,99.8,0,8631,94.2,157672,165008,0.8
211904,2119920,212001,4,86,99.8,0,7608,94.2,157618,164961,0.8
