-3.720219729915378e-05
-4.8225070572976926e-05
-5.6492225528344285e-05
-5.3736507209888505e-05
-4.2713633936065354e-05
-3.995791561760957e-05
-5.9247943846800084e-05
-5.098078889143272e-05
-4.5469352254521147e-05
-5.9247943846800084e-05
-6.475938048371164e-05
-5.6492225528344285e-05
-5.3736507209888505e-05
-6.200366216525588e-05
-7.302653543907902e-05
-6.475938048371164e-05
-7.85379720759906e-05
-7.57822537575348e-05
-7.027081712062322e-05
-7.027081712062322e-05
-5.6492225528344285e-05
-5.098078889143272e-05
-5.3736507209888505e-05
-7.302653543907902e-05
-6.200366216525588e-05
-4.5469352254521147e-05
-2.6179324025330647e-05
-4.8225070572976926e-05
-5.3736507209888505e-05
-4.5469352254521147e-05
-3.995791561760957e-05
-4.5469352254521147e-05
-3.995791561760957e-05
-5.3736507209888505e-05
-5.098078889143272e-05
-3.995791561760957e-05
-1.7912169069963278e-05
-1.240073243305171e-05
-2.342360570687485e-05
-3.995791561760957e-05
-4.2713633936065354e-05
-2.8935042343786426e-05
-1.7912169069963278e-05
1.3778591592272275e-06
2.6179324025329308e-05
3.720219729915245e-05
3.444647898069667e-05
3.444647898069667e-05
3.444647898069667e-05
3.169076066224089e-05
4.546935225451981e-05
2.6179324025329308e-05
-4.133577477684346e-06
9.64501411459459e-06
4.133577477683014e-06
-1.7912169069963278e-05
-2.8935042343786426e-05
-3.4446478980697995e-05
-4.2713633936065354e-05
-5.3736507209888505e-05
-4.5469352254521147e-05
-5.3736507209888505e-05
-3.169076066224221e-05
-4.8225070572976926e-05
-7.302653543907902e-05
-4.2713633936065354e-05
-1.7912169069963278e-05
-3.169076066224221e-05
-5.3736507209888505e-05
-4.5469352254521147e-05
-9.64501411459592e-06
4.271363393606403e-05
0.0001832552681773092
0.0004092241702906837
0.0006241701991302349
0.0007068417486839086
0.0005249643396658268
0.00014467521171892812
-0.0002521482261387052
-0.00041197988860914084
-0.00040646845197222917
-0.00037891126878767127
-0.0003348197756923787
-0.00027694969100480727
-0.0002190796063172357
-0.00016396523994811996
-0.00011436231021591582
-8.680512703135793e-05
-5.6492225528344285e-05
-2.8935042343786426e-05
-4.2713633936065354e-05
-5.9247943846800084e-05
-5.9247943846800084e-05
-3.4446478980697995e-05
-2.342360570687485e-05
-2.066788738841907e-05
-1.240073243305171e-05
-1.5156450751507488e-05
-9.64501411459592e-06
-9.64501411459592e-06
-1.240073243305171e-05
-1.5156450751507488e-05
-1.5156450751507488e-05
-1.377859159228559e-06
-4.133577477684346e-06
6.8892957961388014e-06
1.5156450751506162e-05
1.3778591592272275e-06
2.066788738841773e-05
2.8935042343785094e-05
4.82250705729756e-05
6.475938048371032e-05
6.475938048371032e-05
6.200366216525454e-05
8.956084534981241e-05
0.00010058371862363556
7.578225375753347e-05
9.507228198672396e-05
9.507228198672396e-05
0.00010609515526054714
0.00012262946517128183
0.00013916377508201656
0.00014467521171892812
0.00014191949340047234
0.00014743093003738393
0.0001832552681773092
0.0001970338597695881
0.00019152242313267648
0.00020805673304341124
0.00024112535286488067
0.00022734676127260172
0.00024112535286488067
0.00024112535286488067
0.00023010247959105753
0.00023561391622796914
0.00023285819790951333
0.0002383696345464249
0.00022459104295414594
0.0002218353246356902
0.00022734676127260172
0.0002135681696803228
0.00019427814145113231
0.0001832552681773092
0.00015294236667429551
0.00012814090180819342
0.00011436231021591448
8.956084534981241e-05
4.82250705729756e-05
2.066788738841773e-05
1.7912169069961946e-05
6.8892957961388014e-06
-6.889295796140132e-06
-2.342360570687485e-05
-3.169076066224221e-05
-4.8225070572976926e-05
-5.3736507209888505e-05
-3.995791561760957e-05
-4.8225070572976926e-05
-7.302653543907902e-05
-6.751509880216745e-05
-6.751509880216745e-05
-5.6492225528344285e-05
-6.751509880216745e-05
-8.129369039444639e-05
-5.9247943846800084e-05
-4.8225070572976926e-05
-6.475938048371164e-05
-7.302653543907902e-05
-8.129369039444639e-05
-9.507228198672531e-05
-0.00010058371862363688
-7.85379720759906e-05
-6.475938048371164e-05
-6.751509880216745e-05
-7.85379720759906e-05
-7.302653543907902e-05
-8.129369039444639e-05
-8.680512703135793e-05
-8.680512703135793e-05
-6.475938048371164e-05
-6.200366216525588e-05
-7.302653543907902e-05
-6.475938048371164e-05
-7.302653543907902e-05
-6.200366216525588e-05
-5.9247943846800084e-05
-5.098078889143272e-05
-5.9247943846800084e-05
-7.302653543907902e-05
-6.200366216525588e-05
-3.995791561760957e-05
-5.3736507209888505e-05
-5.3736507209888505e-05
-5.6492225528344285e-05
-5.6492225528344285e-05
-5.9247943846800084e-05
-4.8225070572976926e-05
-3.720219729915378e-05
-3.720219729915378e-05
-5.3736507209888505e-05
-4.5469352254521147e-05
-4.8225070572976926e-05
-3.169076066224221e-05
-4.133577477684346e-06
2.066788738841773e-05
2.8935042343785094e-05
2.3423605706873515e-05
-1.377859159228559e-06
-1.240073243305171e-05
-1.377859159228559e-06
2.3423605706873515e-05
2.6179324025329308e-05
-1.377859159228559e-06
-3.995791561760957e-05
-3.720219729915378e-05
-3.4446478980697995e-05
-3.169076066224221e-05
-3.995791561760957e-05
-5.3736507209888505e-05
-4.8225070572976926e-05
-4.5469352254521147e-05
-6.751509880216745e-05
-5.3736507209888505e-05
-5.9247943846800084e-05
-6.200366216525588e-05
-6.751509880216745e-05
-8.956084534981374e-05
-7.302653543907902e-05
-5.098078889143272e-05
-7.302653543907902e-05
-5.3736507209888505e-05
1.7912169069961946e-05
0.000172232394903486
0.0004009570153353164
0.0006599945372701603
0.0007343989318684667
0.0005663001144426635
0.00018601098649576498
-0.0002549039444571609
-0.00044504850843061025
-0.00045055994506752175
-0.0004257584802014197
-0.0003816669871061273
-0.0003348197756923787
-0.00025765966277561676
-0.00018325526817731047
-0.00016947667658503157
-0.0001336523384451063
-9.78280003051811e-05
-9.231656366826955e-05
-8.680512703135793e-05
-6.751509880216745e-05
-4.5469352254521147e-05
-3.995791561760957e-05
-3.4446478980697995e-05
-4.5469352254521147e-05
-6.200366216525588e-05
-7.027081712062322e-05
-3.720219729915378e-05
-1.7912169069963278e-05
-2.8935042343786426e-05
-2.342360570687485e-05
-4.133577477684346e-06
4.133577477683014e-06
-9.64501411459592e-06
-4.133577477684346e-06
6.8892957961388014e-06
2.3423605706873515e-05
3.169076066224089e-05
3.9957915617608246e-05
4.82250705729756e-05
5.9247943846798756e-05
6.751509880216611e-05
7.02708171206219e-05
6.751509880216611e-05
8.956084534981241e-05
8.68051270313566e-05
9.507228198672396e-05
0.00010885087357900291
0.00013089662012664922
0.00011436231021591448
0.00010333943694209132
0.0001253851834897376
0.00014191949340047234
0.00017498811322194178
0.00020254529640649968
0.000210812451361867
0.00023285819790951333
0.0002493925078202481
0.0002576596627756154
0.00022459104295414594
0.00019978957808804387
0.000210812451361867
0.0002493925078202481
0.0002383696345464249
0.00023561391622796914
0.0002383696345464249
0.00022459104295414594
0.00020254529640649968
0.0001970338597695881
0.00019978957808804387
0.00019152242313267648
0.000172232394903486
0.0001694766765850302
0.00013365233844510492
7.853797207598924e-05
6.200366216525454e-05
4.546935225451981e-05
3.444647898069667e-05
4.133577477683014e-06
-2.342360570687485e-05
-4.5469352254521147e-05
-4.5469352254521147e-05
-5.3736507209888505e-05
-5.6492225528344285e-05
-6.475938048371164e-05
-7.85379720759906e-05
-9.78280003051811e-05
-8.129369039444639e-05
-8.680512703135793e-05
-0.00010333943694209268
-9.78280003051811e-05
-0.00010609515526054846
-0.00013089662012665053
-0.00010885087357900426
-9.507228198672531e-05
-8.956084534981374e-05
-0.00010058371862363688
-0.00010058371862363688
-9.78280003051811e-05
-0.00010333943694209268
-0.00010058371862363688
-9.231656366826955e-05
-7.85379720759906e-05
-7.302653543907902e-05
-7.57822537575348e-05
-9.231656366826955e-05
-9.231656366826955e-05
-5.6492225528344285e-05
-5.6492225528344285e-05
-6.200366216525588e-05
-9.231656366826955e-05
-8.404940871290214e-05
-7.57822537575348e-05
-7.302653543907902e-05
-8.680512703135793e-05
-9.507228198672531e-05
-0.00010609515526054846
-0.00010885087357900426
-0.00011436231021591582
-0.00012538518348973897
-0.00010609515526054846
-9.507228198672531e-05
-9.231656366826955e-05
-8.129369039444639e-05
-7.027081712062322e-05
-8.129369039444639e-05
-7.302653543907902e-05
-6.751509880216745e-05
-8.956084534981374e-05
-9.78280003051811e-05
-0.00013089662012665053
-0.0001391637750820179
-0.00012538518348973897
-0.00014191949340047367
-0.00014467521171892948
-0.00014467521171892948
-0.00014467521171892948
-0.000150186648355841
-0.0001336523384451063
-6.475938048371164e-05
-2.8935042343786426e-05
-4.133577477684346e-06
-1.5156450751507488e-05
-5.3736507209888505e-05
-6.200366216525588e-05
-4.5469352254521147e-05
-2.6179324025330647e-05
-3.4446478980697995e-05
-5.3736507209888505e-05
-9.231656366826955e-05
-8.129369039444639e-05
-9.507228198672531e-05
-0.00013089662012665053
-0.000150186648355841
-0.00014467521171892948
-7.57822537575348e-05
-1.7912169069963278e-05
-1.7912169069963278e-05
-4.5469352254521147e-05
-4.5469352254521147e-05
-2.8935042343786426e-05
1.2400732433050376e-05
3.169076066224089e-05
3.720219729915245e-05
7.30265354390777e-05
0.00011711802853437029
0.00024663678950179223
0.0004422927901121532
0.0006131473258564118
0.0008611619745174325
0.0011725581445029367
0.001696144625009536
0.001671343160143434
0.0013654584267948416
0.0009024977492942696
0.000637948790722514
0.000717864621957732
0.0008308490730144192
0.0009934364538033101
0.0012414511024643313
0.001453641412985427
0.0015859158922713046
0.0016492974135957881
0.0016548088502326991
0.0016134730754558623
0.0015390686808575565
0.00146466428625925
0.0014343513847562366
0.0014756871595330732
0.0014453742580300595
0.0013544355535210185
0.0012882983138780798
0.0012276725108720525
0.001169802426184481
0.0011532681162737465
0.0011615352712291134
0.0011174437781338207
0.0010705965667200726
0.0010265050736247801
0.0010044593270771337
0.000960367833981841
0.0009328106507972832
0.0008859634393835348
0.0008501391012436096
0.0008473833829251538
0.0008473833829251538
0.0008363605096513305
0.0008253376363775078
0.0008253376363775078
0.00081707048142214
0.0007922690165560381
0.0007592003967345686
0.0007151089036392759
0.000687551720454718
0.0006710174105439835
0.0006324373540856024
0.0005911015793087656
0.0005525215228503846
0.000508430029755092
0.0004863842832074457
0.0004643385366597993
0.0004533156633859763
0.0004367813534752416
0.0004064684519722279
0.0003982012970168605
0.0003816669871061258
0.0003623769588769353
0.0003596212405584795
0.00032655262073701005
0.000301751155870908
0.0002852168459601733
0.00027143825436789435
0.00024663678950179223
0.00022734676127260172
0.00020805673304341124
0.00017774383154039756
0.00014191949340047234
8.68051270313566e-05
3.720219729915245e-05
-3.720219729915378e-05
-8.129369039444639e-05
-0.0001336523384451063
-0.00018325526817731047
-0.00021632388799877996
-0.00027419397268635144
-0.0003127740291447324
-0.00036237695887693665
-0.00041749132524605234
-0.00043402563515678713
-0.00046433853665980087
-0.0004946514381628143
-0.0005139414663920051
-0.0005414986495765627
-0.0005828344243533996
-0.0005993687342641343
-0.00065448310063325
-0.0007040860303654542
-0.0007288874952315562
-0.0007509332417792025
-0.0007564446784161143
-0.0007564446784161143
-0.0007812461432822162
-0.0007840018616006722
-0.0007977804531929508
-0.0008143147631036856
-0.0007922690165560394
-0.0007702232700083929
-0.0007536889600976582
-0.0007261317769131007
-0.0007151089036392773
-0.0006930631570916311
-0.0006627502555886173
-0.0006572388189517057
-0.0006434602273594267
-0.0006241701991302363
-0.0005993687342641343
-0.0005800787060349438
-0.0005249643396658282
-0.0005084300297550932
-0.0005304757763027395
-0.0005111857480735491
-0.00048638428320744705
-0.00045882710002288904
-0.00044504850843061025
-0.00043953707179369863
-0.00044504850843061025
-0.000423002761882964
-0.00040095701533531767
-0.0003844227054245829
-0.00037339983215075977
-0.0003982012970168618
-0.0003844227054245829
-0.00036237695887693665
-0.0003430869306477461
-0.0003320640573739229
-0.0003210411841000998
-0.0003210411841000998
-0.0003100183108262768
-0.00027970540932326305
-0.0002604153810940725
-0.0002466367895017936
-0.00023010247959105888
-0.0001997895780880452
-0.00019427814145113364
-0.00018876670481422206
-0.0001997895780880452
-0.00020530101472495681
-0.0002080567330434125
-0.0002108124513618684
-0.0002108124513618684
-0.0002218353246356915
-0.00021632388799877996
-0.00023836963454642628
-0.00025765966277561676
-0.0002549039444571609
-0.00023561391622797047
-0.00022734676127260308
-0.0002218353246356915
-0.00021356816968032413
-0.0002108124513618684
-0.0002218353246356915
-0.00022459104295414727
-0.0002080567330434125
-0.0002080567330434125
-0.00020254529640650095
-0.00018876670481422206
-0.00018601098649576628
-0.00018325526817731047
-0.0001364080567635621
-7.027081712062322e-05
9.507228198672396e-05
0.00034584264896620056
0.0005222086213473709
0.0004395370717936973
0.00011436231021591448
-0.00031828546578164407
-0.0006489716639963384
-0.0007647118333714817
-0.0007399103685053794
-0.0006903074387731753
-0.0006103916075379574
-0.0005304757763027395
-0.0004422927901121546
-0.00035410980392156926
-0.00029348400091554195
-0.0002549039444571609
-0.00023285819790951464
-0.00020530101472495681
-0.0001997895780880452
-0.0001777438315403989
-0.00018325526817731047
-0.00018876670481422206
-0.00016672095826657574
-0.000150186648355841
-0.000150186648355841
-0.0001364080567635621
-0.00011436231021591582
-0.00011436231021591582
-0.00012814090180819475
-0.00012814090180819475
-0.00011436231021591582
-0.00010058371862363688
-9.78280003051811e-05
-8.680512703135793e-05
-7.85379720759906e-05
-7.027081712062322e-05
-6.751509880216745e-05
-6.475938048371164e-05
-5.6492225528344285e-05
-3.995791561760957e-05
-3.720219729915378e-05
-2.6179324025330647e-05
-6.889295796140132e-06
-1.377859159228559e-06
1.2400732433050376e-05
1.2400732433050376e-05
1.2400732433050376e-05
4.546935225451981e-05
6.751509880216611e-05
8.68051270313566e-05
0.00011160659189745871
0.00011711802853437029
0.00013089662012664922
0.00014743093003738393
0.00015294236667429551
0.00017498811322194178
0.00019978957808804387
0.00019427814145113231
0.0001832552681773092
0.00019427814145113231
0.00019978957808804387
0.00020254529640649968
0.00019978957808804387
0.000210812451361867
0.00019978957808804387
0.00018601098649576498
0.00017774383154039756
0.00016672095826657444
0.00013089662012664922
0.00011436231021591448
8.956084534981241e-05
5.649222552834297e-05
1.7912169069961946e-05
-1.377859159228559e-06
-1.240073243305171e-05
-5.098078889143272e-05
-7.57822537575348e-05
-9.507228198672531e-05
-0.0001226294651712832
-0.0001364080567635621
-0.00015569808499275262
-0.0001612095216296642
-0.00016396523994811996
-0.00016947667658503157
-0.00017498811322194308
-0.00020530101472495681
-0.00020530101472495681
-0.00020530101472495681
-0.0001997895780880452
-0.00019427814145113364
-0.00019703385976958942
-0.00019427814145113364
-0.0002080567330434125
-0.00021632388799877996
-0.00021632388799877996
-0.00021632388799877996
-0.0002080567330434125
-0.0002190796063172357
-0.00020530101472495681
-0.00018601098649576628
-0.00019427814145113364
-0.0001997895780880452
-0.0002190796063172357
-0.0002108124513618684
-0.0002080567330434125
-0.00020530101472495681
-0.00019703385976958942
-0.00019152242313267784
-0.00018876670481422206
-0.0001997895780880452
-0.0001997895780880452
-0.00018601098649576628
-0.00018325526817731047
-0.0001997895780880452
-0.0002080567330434125
-0.00018325526817731047
-0.00018049954985885472
-0.00019427814145113364
-0.00019427814145113364
-0.00018876670481422206
-0.00018876670481422206
-0.00018876670481422206
-0.00018325526817731047
-0.00017498811322194308
-0.00016396523994811996
-0.00016947667658503157
-0.00017223239490348733
-0.00015569808499275262
-0.00015294236667429682
-0.00014743093003738526
-0.0001226294651712832
-0.00010333943694209268
-0.00010885087357900426
-0.00014743093003738526
-0.00015294236667429682
-0.00014191949340047367
-0.00014743093003738526
-0.00014743093003738526
-0.000150186648355841
-0.00015569808499275262
-0.00015294236667429682
-0.00016947667658503157
-0.00018325526817731047
-0.00019427814145113364
-0.00018325526817731047
-0.00019152242313267784
-0.0002108124513618684
-0.00018876670481422206
-0.00018876670481422206
-0.00019427814145113364
-0.00018325526817731047
-0.00018876670481422206
-0.00019427814145113364
-0.00019703385976958942
-0.00019703385976958942
-0.00019427814145113364
-0.00016396523994811996
-0.00013089662012665053
-8.129369039444639e-05
1.7912169069961946e-05
0.00019427814145113231
0.0003954455786984048
0.0004670942549782553
0.000315529747463187
-3.169076066224221e-05
-0.0004312699168383313
-0.0006737731288624405
-0.0006875517204547195
-0.0006379487907225153
-0.0005993687342641343
-0.0005414986495765627
-0.00048087284657053543
-0.00040095701533531767
-0.0003155297474631883
-0.0002549039444571609
-0.00023285819790951464
-0.00021632388799877996
-0.0002190796063172357
-0.0002080567330434125
-0.00019703385976958942
-0.0001777438315403989
-0.00016672095826657574
-0.00015569808499275262
-0.00014467521171892948
-0.00014467521171892948
-0.00014743093003738526
-0.0001391637750820179
-0.00014467521171892948
-0.00012814090180819475
-0.00010885087357900426
-0.00010885087357900426
-0.00010058371862363688
-8.680512703135793e-05
-8.129369039444639e-05
-8.404940871290214e-05
-7.302653543907902e-05
-6.475938048371164e-05
-6.751509880216745e-05
-5.9247943846800084e-05
-3.995791561760957e-05
-2.6179324025330647e-05
-2.8935042343786426e-05
-3.720219729915378e-05
-2.342360570687485e-05
-9.64501411459592e-06
4.133577477683014e-06
1.7912169069961946e-05
3.9957915617608246e-05
6.200366216525454e-05
7.02708171206219e-05
7.853797207598924e-05
9.23165636682682e-05
0.00011160659189745871
0.00013640805676356078
0.00015018664835583973
0.0001556980849927513
0.00016120952162966288
0.00016120952162966288
0.0001694766765850302
0.00017498811322194178
0.0001832552681773092
0.00018876670481422076
0.0001832552681773092
0.0001832552681773092
0.00018601098649576498
0.00016672095826657444
0.00015294236667429551
0.00014191949340047234
0.00013640805676356078
0.00011711802853437029
7.853797207598924e-05
4.82250705729756e-05
2.066788738841773e-05
-1.377859159228559e-06
-2.342360570687485e-05
-4.8225070572976926e-05
-7.302653543907902e-05
-8.129369039444639e-05
-0.00010333943694209268
-0.00012538518348973897
-0.00014467521171892948
-0.0001584538033112084
-0.0001612095216296642
-0.00015569808499275262
-0.0001612095216296642
-0.00018325526817731047
-0.00020254529640650095
-0.00019703385976958942
-0.00019703385976958942
-0.00019703385976958942
-0.00019703385976958942
-0.0002080567330434125
-0.00019152242313267784
-0.00020254529640650095
-0.0002108124513618684
-0.00020254529640650095
-0.00019703385976958942
-0.00020530101472495681
-0.0001997895780880452
-0.0001997895780880452
-0.00020254529640650095
-0.00019427814145113364
-0.0001997895780880452
-0.00019427814145113364
-0.00018876670481422206
-0.00018601098649576628
-0.00018325526817731047
-0.00018876670481422206
-0.00019703385976958942
-0.0002080567330434125
-0.00019703385976958942
-0.00018325526817731047
-0.00018049954985885472
-0.00018049954985885472
-0.0001777438315403989
-0.00016947667658503157
-0.00016947667658503157
-0.00016947667658503157
-0.0001612095216296642
-0.000150186648355841
-0.00017498811322194308
-0.00017223239490348733
-0.0001584538033112084
-0.00014743093003738526
-0.00014467521171892948
-0.00012538518348973897
-0.00011436231021591582
-0.00011436231021591582
-0.00010058371862363688
-8.956084534981374e-05
-0.00010609515526054846
-0.00013089662012665053
-0.00012814090180819475
-0.00012538518348973897
-0.00012538518348973897
-0.0001226294651712832
-0.00012538518348973897
-0.0001336523384451063
-0.00015294236667429682
-0.0001584538033112084
-0.00016672095826657574
-0.00018049954985885472
-0.00018049954985885472
-0.00017223239490348733
-0.00017223239490348733
-0.00016672095826657574
-0.00016672095826657574
-0.00017223239490348733
-0.0001777438315403989
-0.00018876670481422206
-0.00019427814145113364
-0.00017223239490348733
-0.00014743093003738526
-0.00014467521171892948
-0.0001171180285343716
-5.9247943846800084e-05
3.720219729915245e-05
0.00022459104295414594
0.000560788677805752
0.0004422927901121532
0.00011987374685282605
-0.0003100183108262768
-0.0005855901426718552
-0.0006186587624933248
-0.0005635443961242091
-0.0005166971847104609
-0.00046433853665980087
-0.0003982012970168618
-0.0003320640573739229
-0.0002824611276417188
-0.00025765966277561676
-0.00022459104295414727
-0.00020530101472495681
-0.00018876670481422206
-0.00018601098649576628
-0.00016947667658503157
-0.000150186648355841
-0.00014191949340047367
-0.00013089662012665053
-0.0001364080567635621
-0.0001364080567635621
-0.0001391637750820179
-0.00013089662012665053
-0.0001226294651712832
-0.00011436231021591582
-0.00010058371862363688
-8.404940871290214e-05
-7.57822537575348e-05
-9.507228198672531e-05
-0.00011160659189746003
-0.00010333943694209268
-9.507228198672531e-05
-8.956084534981374e-05
-6.200366216525588e-05
-6.751509880216745e-05
-7.027081712062322e-05
-6.475938048371164e-05
-5.098078889143272e-05
-4.2713633936065354e-05
-2.6179324025330647e-05
-9.64501411459592e-06
9.64501411459459e-06
2.6179324025329308e-05
3.444647898069667e-05
4.546935225451981e-05
6.200366216525454e-05
7.853797207598924e-05
9.782800030517979e-05
0.00011436231021591448
0.00013089662012664922
0.00013916377508201656
0.0001253851834897376
0.00015294236667429551
0.00016396523994811866
0.00016672095826657444
0.000172232394903486
0.000172232394903486
0.00017774383154039756
0.00018601098649576498
0.00018876670481422076
0.0001970338597695881
0.00018876670481422076
0.00019427814145113231
0.0001832552681773092
0.00016120952162966288
0.00013365233844510492
8.129369039444505e-05
5.373650720988717e-05
2.6179324025329308e-05
-1.240073243305171e-05
-3.995791561760957e-05
-5.6492225528344285e-05
-7.85379720759906e-05
-8.956084534981374e-05
-9.231656366826955e-05
-9.78280003051811e-05
-0.0001364080567635621
-0.0001612095216296642
-0.0001584538033112084
-0.0001612095216296642
-0.00016396523994811996
-0.0001612095216296642
-0.00016672095826657574
-0.00017223239490348733
-0.00016947667658503157
-0.00017498811322194308
-0.00018601098649576628
-0.00019152242313267784
-0.00017498811322194308
-0.00018325526817731047
-0.00018325526817731047
-0.00018601098649576628
-0.00018876670481422206
-0.00019152242313267784
-0.0001997895780880452
-0.0001997895780880452
-0.00020254529640650095
-0.0002080567330434125
-0.0001997895780880452
-0.00019427814145113364
-0.00019152242313267784
-0.00018876670481422206
-0.0001777438315403989
-0.0001612095216296642
-0.00016672095826657574
-0.00018601098649576628
-0.00018601098649576628
-0.00017498811322194308
-0.00017223239490348733
-0.00016672095826657574
-0.0001612095216296642
-0.00016396523994811996
-0.00017498811322194308
-0.00017223239490348733
-0.00016947667658503157
-0.0001584538033112084
-0.00016396523994811996
-0.0001612095216296642
-0.0001584538033112084
-0.0001612095216296642
-0.0001612095216296642
-0.00015294236667429682
-0.0001364080567635621
-0.0001336523384451063
-0.00014467521171892948
-0.00015569808499275262
-0.00014743093003738526
-0.00012814090180819475
-0.0001171180285343716
-0.0001171180285343716
-0.00010885087357900426
-0.00010333943694209268
-0.00010333943694209268
-9.231656366826955e-05
-9.231656366826955e-05
-0.00011160659189746003
-0.00011436231021591582
-0.00011160659189746003
-0.00011436231021591582
-0.00012814090180819475
-0.00014467521171892948
-0.000150186648355841
-0.0001584538033112084
-0.0001612095216296642
-0.00016672095826657574
-0.0001612095216296642
-0.00016396523994811996
-0.00017498811322194308
-0.00016947667658503157
-0.00017223239490348733
-0.00016672095826657574
-0.00016396523994811996
-0.00016396523994811996
-0.0001584538033112084
-0.00014743093003738526
-0.00015294236667429682
-0.00014191949340047367
-7.57822537575348e-05
4.271363393606403e-05
0.00023010247959105753
0.0004395370717936973
0.0006048801709010444
0.0005552772411688404
0.00025214822613870384
-0.00016672095826657574
-0.00046709425497825643
-0.0005414986495765627
-0.0005056743114366376
-0.00045882710002288904
-0.00040371273365377345
-0.0003513540856031135
-0.00028797256427863044
-0.00024112535286488197
-0.00021356816968032413
-0.00018601098649576628
-0.00019427814145113364
-0.0001997895780880452
-0.00016672095826657574
-0.00015294236667429682
-0.00015569808499275262
-0.00014467521171892948
-0.00012814090180819475
-0.0001198737468528274
-0.00010609515526054846
-0.0001198737468528274
-0.00012814090180819475
-0.00010609515526054846
-0.00010609515526054846
-0.00010885087357900426
-0.00010058371862363688
-9.78280003051811e-05
-8.680512703135793e-05
-8.404940871290214e-05
-7.85379720759906e-05
-6.751509880216745e-05
-5.9247943846800084e-05
-5.3736507209888505e-05
-6.751509880216745e-05
-5.6492225528344285e-05
-3.995791561760957e-05
-3.720219729915378e-05
-3.4446478980697995e-05
-2.342360570687485e-05
-1.240073243305171e-05
9.64501411459459e-06
1.7912169069961946e-05
2.6179324025329308e-05
3.9957915617608246e-05
5.9247943846798756e-05
8.129369039444505e-05
8.956084534981241e-05
9.782800030517979e-05
0.00011160659189745871
0.00011987374685282605
0.00013916377508201656
0.0001556980849927513
0.00016672095826657444
0.000172232394903486
0.00017774383154039756
0.00017774383154039756
0.00017498811322194178
0.00017498811322194178
0.00017498811322194178
0.00018876670481422076
0.00019152242313267648
0.00016120952162966288
0.0001556980849927513
0.00014743093003738393
0.00012814090180819342
0.00010058371862363556
7.30265354390777e-05
4.546935225451981e-05
4.133577477683014e-06
-3.169076066224221e-05
-4.8225070572976926e-05
-6.751509880216745e-05
-8.680512703135793e-05
-0.00010609515526054846
-0.0001198737468528274
-0.00012538518348973897
-0.00014743093003738526
-0.00015294236667429682
-0.00016947667658503157
-0.00016947667658503157
-0.0001612095216296642
-0.0001584538033112084
-0.00016396523994811996
-0.00016947667658503157
-0.00016672095826657574
-0.0001612095216296642
-0.00016947667658503157
-0.00018601098649576628
-0.00020254529640650095
-0.00018876670481422206
-0.0001777438315403989
-0.0001777438315403989
-0.00018049954985885472
-0.0001777438315403989
-0.00016672095826657574
-0.00017223239490348733
-0.00018325526817731047
-0.00019703385976958942
-0.00018601098649576628
-0.0001777438315403989
-0.00020254529640650095
-0.00020254529640650095
-0.00019152242313267784
-0.00018876670481422206
-0.00018325526817731047
-0.00016947667658503157
-0.00015294236667429682
-0.00016947667658503157
-0.00018049954985885472
-0.00016396523994811996
-0.00016947667658503157
-0.00018049954985885472
-0.0001777438315403989
-0.00017498811322194308
-0.00018049954985885472
-0.00017498811322194308
-0.00016396523994811996
-0.0001584538033112084
-0.000150186648355841
-0.00014467521171892948
-0.00016672095826657574
-0.00017223239490348733
-0.00016396523994811996
-0.00015569808499275262
-0.00015569808499275262
-0.00016947667658503157
-0.00018049954985885472
-0.00018049954985885472
-0.00016947667658503157
-0.00015569808499275262
-0.00014743093003738526
-0.00016396523994811996
-0.0001777438315403989
-0.00017223239490348733
-0.00016672095826657574
-0.000150186648355841
-0.00014191949340047367
-0.0001612095216296642
-0.00014743093003738526
-0.00015294236667429682
-0.00018049954985885472
-0.00018601098649576628
-0.0001777438315403989
-0.0001777438315403989
-0.0001584538033112084
-0.0001584538033112084
-0.00015294236667429682
-0.000150186648355841
-0.00015294236667429682
-0.00016396523994811996
-0.00018325526817731047
-0.00018049954985885472
-0.00018601098649576628
-0.00017498811322194308
-0.0001584538033112084
-0.00016396523994811996
-0.00016672095826657574
-0.0001777438315403989
-0.00017223239490348733
-0.00016947667658503157
-0.00017498811322194308
-0.0001584538033112084
-0.00016947667658503157
-0.00017498811322194308
-0.0001777438315403989
-0.0001777438315403989
-0.0001612095216296642
-0.00015569808499275262
-0.00016396523994811996
-0.0001584538033112084
-0.00015569808499275262
-0.000150186648355841
-0.00014743093003738526
-0.0001364080567635621
-0.0002108124513618684
-0.00023836963454642628
-0.00018876670481422206
-0.00017223239490348733
-0.00015569808499275262
-0.00016396523994811996
-0.00017223239490348733
-0.00016947667658503157
-0.0001612095216296642
-0.0001612095216296642
-0.00015569808499275262
-0.00014191949340047367
-0.00015569808499275262
-0.00014467521171892948
-0.00016396523994811996
-0.00018601098649576628
-0.00016947667658503157
-0.000150186648355841
-0.0001391637750820179
-0.00014467521171892948
-0.0001612095216296642
-0.00017498811322194308
-0.0001584538033112084
-0.00015569808499275262
-0.000150186648355841
-0.0001336523384451063
-0.00012538518348973897
-0.00011436231021591582
-9.231656366826955e-05
-9.78280003051811e-05
-0.00010333943694209268
-0.00010058371862363688
-9.78280003051811e-05
-9.507228198672531e-05
-0.00011160659189746003
-0.0001336523384451063
-0.0001198737468528274
-0.00012538518348973897
-0.00012538518348973897
-0.0001171180285343716
-0.00013089662012665053
-0.0001391637750820179
-0.00014191949340047367
-0.00015294236667429682
-0.0001391637750820179
-0.000150186648355841
-0.0001612095216296642
-0.00015294236667429682
-0.000150186648355841
-0.00014191949340047367
-0.0001391637750820179
-0.0001364080567635621
-0.00015294236667429682
-0.00014467521171892948
-8.680512703135793e-05
2.8935042343785094e-05
0.00024663678950179223
0.0004918957198443572
0.0007040860303654528
0.0007316432135500107
0.00042851419851987416
-9.64501411459592e-06
-0.00037339983215075977
-0.0005304757763027395
-0.0004891400015259028
-0.0004257584802014197
-0.0003871784237430386
-0.00032655262073701135
-0.00024388107118333775
-0.00022459104295414727
-0.00016947667658503157
-0.00014743093003738526
-0.00014467521171892948
-0.00014191949340047367
-0.00015294236667429682
-0.00014743093003738526
-0.00010885087357900426
-0.00011436231021591582
-0.00012814090180819475
-0.00012814090180819475
-0.00010333943694209268
-0.00010885087357900426
-9.231656366826955e-05
-7.57822537575348e-05
-7.57822537575348e-05
-7.302653543907902e-05
-8.129369039444639e-05
-8.680512703135793e-05
-9.78280003051811e-05
-9.231656366826955e-05
-7.302653543907902e-05
-4.5469352254521147e-05
-4.8225070572976926e-05
-5.3736507209888505e-05
-3.4446478980697995e-05
-5.3736507209888505e-05
-6.475938048371164e-05
-4.5469352254521147e-05
-2.066788738841907e-05
-1.7912169069963278e-05
-6.889295796140132e-06
-6.889295796140132e-06
-1.240073243305171e-05
-6.889295796140132e-06
2.3423605706873515e-05
3.9957915617608246e-05
1.5156450751506162e-05
1.7912169069961946e-05
4.271363393606403e-05
7.853797207598924e-05
9.507228198672396e-05
0.00011436231021591448
0.00011711802853437029
0.00011436231021591448
0.00012262946517128183
0.00013089662012664922
0.00013365233844510492
0.00014743093003738393
0.00015018664835583973
0.00014467521171892812
0.00014743093003738393
0.00016672095826657444
0.00016120952162966288
0.00014191949340047234
0.00013916377508201656
0.00016120952162966288
0.00016672095826657444
0.00016120952162966288
0.00015845380331120705
0.00012262946517128183
9.782800030517979e-05
7.02708171206219e-05
4.82250705729756e-05
3.169076066224089e-05
-1.377859159228559e-06
-2.342360570687485e-05
-2.6179324025330647e-05
-6.475938048371164e-05
-8.404940871290214e-05
-8.129369039444639e-05
-8.129369039444639e-05
-0.00010058371862363688
-0.00012814090180819475
-0.00014467521171892948
-0.00015294236667429682
-0.00015569808499275262
-0.00014467521171892948
-0.00012814090180819475
-0.0001364080567635621
-0.0001364080567635621
-0.00013089662012665053
-0.00014191949340047367
-0.0001364080567635621
-0.000150186648355841
-0.0001777438315403989
-0.00018601098649576628
-0.00017223239490348733
-0.00014467521171892948
-0.00014191949340047367
-0.00014191949340047367
-0.00014191949340047367
-0.00014743093003738526
-0.00016672095826657574
-0.00016947667658503157
-0.00016947667658503157
-0.00016947667658503157
-0.00017498811322194308
-0.00018049954985885472
-0.00014467521171892948
-0.00013089662012665053
-0.0001336523384451063
-0.0001612095216296642
-0.00018049954985885472
-0.000150186648355841
-0.00015569808499275262
-0.00016947667658503157
-0.00018601098649576628
-0.00016947667658503157
-0.00014467521171892948
-0.00013089662012665053
-0.00012538518348973897
-0.0001226294651712832
-0.0001391637750820179
-0.00012814090180819475
-0.0001391637750820179
-0.00013089662012665053
-0.0001171180285343716
-0.0001198737468528274
-0.0001226294651712832
-0.0001364080567635621
-0.00014467521171892948
-0.0001612095216296642
-0.00015569808499275262
-0.00014191949340047367
-0.0001391637750820179
-0.00015569808499275262
-0.00015294236667429682
-0.00012538518348973897
-0.0001364080567635621
-0.00016947667658503157
-0.00016672095826657574
-0.00014743093003738526
-0.00012538518348973897
-0.00015294236667429682
-0.00016396523994811996
-0.0001777438315403989
-0.00014191949340047367
-0.00012814090180819475
-0.00015569808499275262
-0.00014743093003738526
-0.00015294236667429682
-0.000150186648355841
-0.00015294236667429682
-0.00014743093003738526
-0.000150186648355841
-0.00018325526817731047
-0.00018601098649576628
-0.00016396523994811996
-0.00014467521171892948
-0.00014191949340047367
-0.00014743093003738526
-0.0001612095216296642
-0.00014743093003738526
-0.00015569808499275262
-0.0001612095216296642
-0.00016396523994811996
-0.00016672095826657574
-0.00017223239490348733
-0.00016672095826657574
-0.00015569808499275262
-0.0001391637750820179
-0.00016396523994811996
-0.00018601098649576628
-0.00016947667658503157
-0.00016672095826657574
-0.00017223239490348733
-0.00018325526817731047
-0.00017498811322194308
-0.00015294236667429682
-0.0001584538033112084
-0.00015294236667429682
-0.00017498811322194308
-0.00018601098649576628
-0.00017223239490348733
-0.0001584538033112084
-0.00016672095826657574
-0.00017498811322194308
-0.00016672095826657574
-0.00016396523994811996
-0.00019152242313267784
-0.00019427814145113364
-0.00019703385976958942
-0.00018325526817731047
-0.0001612095216296642
-0.00014191949340047367
-0.00014743093003738526
-0.0001584538033112084
-0.0001391637750820179
-0.0001226294651712832
-0.00011160659189746003
-9.78280003051811e-05
-0.00010058371862363688
-0.0001171180285343716
-0.00011436231021591582
-0.00011436231021591582
-0.00010058371862363688
-9.507228198672531e-05
-0.00011160659189746003
-0.0001584538033112084
-0.0001612095216296642
-0.00016947667658503157
-0.00016672095826657574
-0.0001584538033112084
-0.00016672095826657574
-0.00016672095826657574
-0.00017498811322194308
-0.0001584538033112084
-0.00014191949340047367
-0.00015569808499275262
-0.00017498811322194308
-0.00016947667658503157
-0.0001612095216296642
-0.0001364080567635621
-0.0001391637750820179
-0.0001336523384451063
-0.00011436231021591582
-2.6179324025330647e-05
0.00016672095826657444
0.00041473560692759526
0.0005414986495765614
0.00042300276188296266
0.00010333943694209132
-0.00030175115587090934
-0.0006131473258564133
-0.0007013303120469984
-0.0006599945372701616
-0.0006131473258564133
-0.0005442543678950186
-0.0004698499732967123
-0.0004257584802014197
-0.0003485983672846577
-0.0002631710994125282
-0.0002549039444571609
-0.00023836963454642628
-0.0002108124513618684
-0.00019427814145113364
-0.00018876670481422206
-0.00018325526817731047
-0.0001612095216296642
-0.00014191949340047367
-0.0001391637750820179
-0.00014191949340047367
-0.0001364080567635621
-0.00012538518348973897
-0.0001198737468528274
-0.00012538518348973897
-0.00010885087357900426
-0.00010333943694209268
-9.507228198672531e-05
-9.507228198672531e-05
-0.00010333943694209268
-9.507228198672531e-05
-0.00010058371862363688
-7.027081712062322e-05
-7.85379720759906e-05
-8.129369039444639e-05
-6.200366216525588e-05
-5.098078889143272e-05
-5.098078889143272e-05
-2.342360570687485e-05
-3.169076066224221e-05
-2.8935042343786426e-05
-2.6179324025330647e-05
-1.5156450751507488e-05
1.3778591592272275e-06
1.7912169069961946e-05
3.720219729915245e-05
2.6179324025329308e-05
3.720219729915245e-05
5.649222552834297e-05
5.9247943846798756e-05
7.30265354390777e-05
9.782800030517979e-05
0.00011987374685282605
0.00013089662012664922
0.00015294236667429551
0.00016672095826657444
0.00015845380331120705
0.0001556980849927513
0.00015294236667429551
0.00016120952162966288
0.00016120952162966288
0.00015294236667429551
0.00014191949340047234
0.00015018664835583973
0.00013365233844510492
0.00010333943694209132
9.23165636682682e-05
8.404940871290084e-05
6.751509880216611e-05
4.271363393606403e-05
2.3423605706873515e-05
4.133577477683014e-06
-2.8935042343786426e-05
-6.200366216525588e-05
-8.680512703135793e-05
-9.231656366826955e-05
-0.00010885087357900426
-0.0001171180285343716
-0.0001226294651712832
-0.00012814090180819475
-0.0001364080567635621
-0.00015294236667429682
-0.00017223239490348733
-0.00017223239490348733
-0.0001584538033112084
-0.0001612095216296642
-0.0001997895780880452
-0.00020530101472495681
-0.00020530101472495681
-0.00020530101472495681
-0.0002080567330434125
-0.00019703385976958942
-0.00019703385976958942
-0.00019152242313267784
-0.00019152242313267784
-0.00019427814145113364
-0.00017498811322194308
-0.00017223239490348733
-0.0001777438315403989
-0.00019152242313267784
-0.00019152242313267784
-0.00019427814145113364
-0.00019152242313267784
-0.00019427814145113364
-0.00018876670481422206
-0.00018325526817731047
-0.00019427814145113364
-0.00019427814145113364
-0.00018049954985885472
-0.00018601098649576628
-0.00018325526817731047
-0.00018601098649576628
-0.00019427814145113364
-0.00018601098649576628
-0.00018325526817731047
-0.00017498811322194308
-0.00018876670481422206
-0.00016672095826657574
-0.00016947667658503157
-0.0001777438315403989
-0.00017223239490348733
-0.0001612095216296642
-0.00014467521171892948
-0.0001612095216296642
-0.00018049954985885472
-0.00017498811322194308
-0.0001777438315403989
-0.00016947667658503157
-0.00014743093003738526
-0.00018325526817731047
-0.00018049954985885472
-0.00017223239490348733
-0.00018325526817731047
-0.00018601098649576628
-0.00019703385976958942
-0.0002080567330434125
-0.0001997895780880452
-0.00018601098649576628
-0.00017223239490348733
-0.00017498811322194308
-0.00017223239490348733
-0.00018049954985885472
-0.00018876670481422206
-0.00018049954985885472
-0.00017223239490348733
-0.00018601098649576628
-0.00019152242313267784
-0.00018601098649576628
-0.00018049954985885472
-0.00017223239490348733
-0.00018325526817731047
-0.00018876670481422206
-0.00016947667658503157
-0.00018325526817731047
-0.00018325526817731047
-0.00017223239490348733
-0.00017223239490348733
-0.00018876670481422206
-0.00019152242313267784
-0.00016947667658503157
-0.00014743093003738526
-0.0001364080567635621
-0.00011160659189746003
-9.507228198672531e-05
-0.00011160659189746003
-0.0001198737468528274
-0.0001198737468528274
-0.0001364080567635621
-0.0001391637750820179
-0.00014467521171892948
-0.00014467521171892948
-0.00015294236667429682
-0.00015294236667429682
-0.00014467521171892948
-0.00014743093003738526
-0.00015569808499275262
-0.00015569808499275262
-0.00018601098649576628
-0.0002080567330434125
-0.0001997895780880452
-0.00019152242313267784
-0.00018049954985885472
-0.0001612095216296642
-0.00017223239490348733
-0.0001777438315403989
-0.00014191949340047367
-0.0001336523384451063
-0.00012538518348973897
-8.956084534981374e-05
-1.377859159228559e-06
0.0001694766765850302
0.0004009570153353164
0.0005635443961242077
0.0005029185931181804
0.00020530101472495543
-0.00018876670481422206
-0.0005249643396658282
-0.0006407045090409712
-0.00060212445258259
-0.0005607886778057534
-0.0005139414663920051
-0.00044504850843061025
-0.0003871784237430386
-0.0003155297474631883
-0.00026592681773098404
-0.00023836963454642628
-0.00021356816968032413
-0.00019152242313267784
-0.00017498811322194308
-0.00016672095826657574
-0.00014191949340047367
-0.00012538518348973897
-0.00010609515526054846
-0.0001226294651712832
-0.00014743093003738526
-0.0001336523384451063
-0.00010333943694209268
-9.78280003051811e-05
-0.00010333943694209268
-0.00010058371862363688
-8.956084534981374e-05
-7.027081712062322e-05
-7.302653543907902e-05
-7.85379720759906e-05
-8.129369039444639e-05
-8.404940871290214e-05
-7.57822537575348e-05
-7.302653543907902e-05
-4.8225070572976926e-05
-2.8935042343786426e-05
-4.2713633936065354e-05
-4.2713633936065354e-05
-2.342360570687485e-05
-1.5156450751507488e-05
-1.377859159228559e-06
-4.133577477684346e-06
4.133577477683014e-06
3.444647898069667e-05
5.649222552834297e-05
5.098078889143139e-05
5.9247943846798756e-05
6.475938048371032e-05
8.404940871290084e-05
0.00010333943694209132
0.00012262946517128183
0.00012814090180819342
0.00013365233844510492
0.00015845380331120705
0.00016672095826657444
0.00019427814145113231
0.000210812451361867
0.00020530101472495543
0.0002135681696803228
0.0002190796063172344
0.0002190796063172344
0.00022459104295414594
0.0002218353246356902
0.0001970338597695881
0.00017774383154039756
0.000172232394903486
0.00016396523994811866
0.00012814090180819342
9.782800030517979e-05
6.475938048371032e-05
3.720219729915245e-05
1.7912169069961946e-05
-1.240073243305171e-05
-4.5469352254521147e-05
-6.751509880216745e-05
-8.404940871290214e-05
-0.00010609515526054846
-0.00012814090180819475
-0.0001364080567635621
-0.0001391637750820179
-0.00013089662012665053
-0.0001364080567635621
-0.0001391637750820179
-0.00014743093003738526
-0.00015569808499275262
-0.0001612095216296642
-0.0001612095216296642
-0.00017223239490348733
-0.00018325526817731047
-0.0001777438315403989
-0.00017223239490348733
-0.0001777438315403989
-0.00016947667658503157
-0.00018049954985885472
-0.00017498811322194308
-0.00015569808499275262
-0.0001612095216296642
-0.00019152242313267784
-0.00019427814145113364
-0.00018876670481422206
-0.00018049954985885472
-0.00018049954985885472
-0.00018601098649576628
-0.00019427814145113364
-0.00020254529640650095
-0.00018601098649576628
-0.0001777438315403989
-0.0001584538033112084
-0.00015569808499275262
-0.00015569808499275262
-0.00015569808499275262
-0.0001584538033112084
-0.00015294236667429682
-0.00015294236667429682
-0.000150186648355841
-0.00015294236667429682
-0.00014191949340047367
-0.00013089662012665053
-0.000150186648355841
-0.000150186648355841
-0.00015569808499275262
-0.0001584538033112084
-0.00016396523994811996
-0.00015569808499275262
-0.00015294236667429682
-0.0001364080567635621
-0.0001336523384451063
-0.00014467521171892948
-0.0001364080567635621
-0.00016396523994811996
-0.0001612095216296642
-0.0001391637750820179
-0.00014191949340047367
-0.00015294236667429682
-0.00015294236667429682
-0.00014467521171892948
-0.00012814090180819475
-0.00012538518348973897
-0.00012538518348973897
-0.0001198737468528274
-0.00012814090180819475
-0.0001364080567635621
-0.0001336523384451063
-0.0001171180285343716
-0.00010333943694209268
-8.129369039444639e-05
-7.302653543907902e-05
-8.956084534981374e-05
-0.00010058371862363688
-9.231656366826955e-05
-9.507228198672531e-05
-0.00010058371862363688
-9.78280003051811e-05
-9.507228198672531e-05
-9.78280003051811e-05
-0.00010885087357900426
-0.00012538518348973897
-0.00013089662012665053
-0.00012814090180819475
-0.00012814090180819475
-0.00014467521171892948
-0.0001364080567635621
-0.0001364080567635621
-0.00014191949340047367
-0.000150186648355841
-0.0001612095216296642
-0.00016672095826657574
-0.0001612095216296642
-0.00014743093003738526
-0.00014191949340047367
-0.0001391637750820179
-0.0001198737468528274
-5.3736507209888505e-05
6.475938048371032e-05
0.00024112535286488067
0.0004726056916151668
0.0006434602273594254
0.0005911015793087656
0.0002934840009155406
-0.0001364080567635621
-0.0004698499732967123
-0.0005442543678950186
-0.0005056743114366376
-0.00046709425497825643
-0.0004312699168383313
-0.00036237695887693665
-0.00027970540932326305
-0.0002218353246356915
-0.00018876670481422206
-0.0001612095216296642
-0.00016947667658503157
-0.00017498811322194308
-0.00015294236667429682
-0.0001391637750820179
-0.00014191949340047367
-9.78280003051811e-05
-8.680512703135793e-05
-9.507228198672531e-05
-0.00010609515526054846
-0.00010333943694209268
-9.78280003051811e-05
-8.956084534981374e-05
-8.129369039444639e-05
-7.027081712062322e-05
-7.57822537575348e-05
-7.57822537575348e-05
-6.475938048371164e-05
-5.6492225528344285e-05
-6.751509880216745e-05
-7.302653543907902e-05
-5.9247943846800084e-05
-4.5469352254521147e-05
-2.8935042343786426e-05
-1.5156450751507488e-05
-1.5156450751507488e-05
-6.889295796140132e-06
1.7912169069961946e-05
9.64501411459459e-06
-4.133577477684346e-06
9.64501411459459e-06
3.169076066224089e-05
4.82250705729756e-05
6.475938048371032e-05
7.30265354390777e-05
9.507228198672396e-05
0.00010609515526054714
0.00011160659189745871
0.00013640805676356078
0.00015294236667429551
0.00017498811322194178
0.0001832552681773092
0.00019978957808804387
0.0002190796063172344
0.0001970338597695881
0.00018601098649576498
0.00020254529640649968
0.000210812451361867
0.00021632388799877858
0.00023285819790951333
0.0002383696345464249
0.00022734676127260172
0.00020805673304341124
0.00019978957808804387
0.0001832552681773092
0.00016396523994811866
0.00013916377508201656
0.00010609515526054714
8.68051270313566e-05
7.02708171206219e-05
3.9957915617608246e-05
-6.889295796140132e-06
-3.4446478980697995e-05
-5.9247943846800084e-05
-6.751509880216745e-05
-7.57822537575348e-05
-8.956084534981374e-05
-0.00010885087357900426
-0.0001198737468528274
-0.00011160659189746003
-0.00010609515526054846
-0.00012814090180819475
-0.00014743093003738526
-0.00014191949340047367
-0.0001364080567635621
-0.0001336523384451063
-0.00014743093003738526
-0.00016396523994811996
-0.00016947667658503157
-0.00016672095826657574
-0.00016396523994811996
-0.0001584538033112084
-0.0001584538033112084
-0.0001584538033112084
-0.0001612095216296642
-0.00016947667658503157
-0.00016672095826657574
-0.00016947667658503157
-0.00016947667658503157
-0.00015569808499275262
-0.00014743093003738526
-0.0001584538033112084
-0.0001612095216296642
-0.00016672095826657574
-0.0001584538033112084
-0.00015569808499275262
-0.000150186648355841
-0.00015569808499275262
-0.00015294236667429682
-0.00014191949340047367
-0.0001364080567635621
-0.00014467521171892948
-0.0001364080567635621
-0.00012814090180819475
-0.00013089662012665053
-0.00016396523994811996
-0.000150186648355841
-0.0001364080567635621
-0.00013089662012665053
-0.00014467521171892948
-0.00014191949340047367
-0.00012538518348973897
-0.00012814090180819475
-0.00014191949340047367
-0.000150186648355841
-0.00014191949340047367
-0.0001364080567635621
-0.00013089662012665053
-0.00013089662012665053
-0.0001391637750820179
-0.0001391637750820179
-0.00014743093003738526
-0.00015569808499275262
-0.00014191949340047367
-0.0001336523384451063
-0.0001364080567635621
-0.00012538518348973897
-0.00011436231021591582
-0.0001336523384451063
-0.00014467521171892948
-0.00015569808499275262
-0.00014191949340047367
-0.00013089662012665053
-0.00013089662012665053
-0.0001391637750820179
-0.00013089662012665053
-0.00010609515526054846
-0.00010885087357900426
-0.00011160659189746003
-0.00010058371862363688
-7.302653543907902e-05
-5.3736507209888505e-05
-6.200366216525588e-05
-7.302653543907902e-05
-9.231656366826955e-05
-8.680512703135793e-05
-8.129369039444639e-05
-8.680512703135793e-05
-9.507228198672531e-05
-0.00010609515526054846
-0.0001171180285343716
-0.00011160659189746003
-0.00011436231021591582
-0.00012538518348973897
-0.0001198737468528274
-0.00011160659189746003
-0.00011160659189746003
-0.00013089662012665053
-0.00013089662012665053
-0.00012814090180819475
-0.00013089662012665053
-0.0001391637750820179
-0.0001198737468528274
-0.00011160659189746003
-0.00012538518348973897
-0.00012814090180819475
-8.404940871290214e-05
-4.133577477684346e-06
0.00013089662012664922
0.00035135408560311223
0.0005911015793087656
0.0007068417486839086
0.0005800787060349425
0.0002135681696803228
-0.00020530101472495681
-0.00045331566338597764
-0.0004946514381628143
-0.0004560713817044334
-0.0004257584802014197
-0.00036788839551384826
-0.00030175115587090934
-0.00024388107118333775
-0.00018325526817731047
-0.00014743093003738526
-0.00014743093003738526
-0.0001364080567635621
-0.00010885087357900426
-9.78280003051811e-05
-0.00010333943694209268
-8.956084534981374e-05
-9.78280003051811e-05
-0.00010609515526054846
-9.507228198672531e-05
-9.231656366826955e-05
-7.85379720759906e-05
-7.027081712062322e-05
-7.302653543907902e-05
-7.027081712062322e-05
-6.475938048371164e-05
-6.475938048371164e-05
-4.5469352254521147e-05
-4.5469352254521147e-05
-5.9247943846800084e-05
-5.6492225528344285e-05
-5.3736507209888505e-05
-4.8225070572976926e-05
-2.342360570687485e-05
-9.64501411459592e-06
-1.377859159228559e-06
-4.133577477684346e-06
1.2400732433050376e-05
1.2400732433050376e-05
1.7912169069961946e-05
5.649222552834297e-05
7.02708171206219e-05
7.578225375753347e-05
9.507228198672396e-05
0.00010333943694209132
0.0001253851834897376
0.00014467521171892812
0.00015845380331120705
0.0001694766765850302
0.00017774383154039756
0.00019152242313267648
0.00021632388799877858
0.00023561391622796914
0.00027970540932326175
0.00032104118410009855
0.000365132677195391
0.0004009570153353164
0.0004367813534752416
0.0005111857480735478
0.0006186587624933234
0.0007068417486839086
0.0007426660868238338
0.0007481775234607456
0.0008032918898298613
0.0009576121156633854
0.0011146880598153653
0.0012111382009613175
0.001293809750514991
0.0014123056382085901
0.0015528472724498353
0.001602450202182039
0.0016989003433279916
0.0018477091325246043
0.0020433651331349654
0.0022142196688792236
0.0022941355001144417
0.0023602727397573804
0.0024787686274509797
0.002663401754787517
0.0028507906004425106
0.0030106222629129463
0.0032062782635233072
0.003341308461127641
0.003382644235904477
0.0034487814755474167
0.003647193194476233
0.0038483606317235063
0.00398339082932784
0.004132199618524452
0.0041514896467536415
0.004010948012512397
0.0037601776455329205
0.003531453025101089
0.003310995559624627
0.003137385305561913
0.0029995993896391225
0.0028590577553978787
0.0027130046845197215
0.0025559287403677414
0.002327204119935911
0.0021425709925993732
0.001960693583581292
0.0018036176394293122
0.0017044117799649037
0.001607961638818951
0.0014343513847562366
0.0013571912718394743
0.0012552296940566102
0.001178069581139848
0.001125710933089188
0.0010678408484016168
0.0010154822003509568
0.0009548563973449294
0.0009024977492942696
0.0008611619745174325
0.0008391162279697863
0.0008308490730144192
0.000806047608148317
0.0007564446784161128
0.0007040860303654528
0.0006847960021362622
0.0006710174105439835
0.0006599945372701603
0.0006131473258564118
0.0005773229877164866
0.0005663001144426635
0.0005525215228503846
0.0005332314946211942
0.0004946514381628131
0.0004808728465705341
0.0004863842832074457
0.0004588271000228878
0.00041749132524605104
0.0003982012970168605
0.0004009570153353164
0.0004009570153353164
0.000392689860379949
0.0003982012970168605
0.00037064411383230263
0.0003568655222400236
0.00034584264896620056
0.00032655262073701005
0.0003127740291447311
0.0003127740291447311
0.00029623971923399637
0.00027143825436789435
0.0002383696345464249
0.00021632388799877858
0.00020805673304341124
0.0001970338597695881
0.0001832552681773092
0.000172232394903486
0.00014467521171892812
0.00012262946517128183
0.00013365233844510492
0.00012814090180819342
0.00013365233844510492
0.0001253851834897376
0.00011987374685282605
0.00011711802853437029
9.782800030517979e-05
8.956084534981241e-05
7.853797207598924e-05
9.507228198672396e-05
9.23165636682682e-05
7.853797207598924e-05
8.956084534981241e-05
0.00010058371862363556
8.129369039444505e-05
5.373650720988717e-05
5.373650720988717e-05
5.9247943846798756e-05
3.9957915617608246e-05
2.6179324025329308e-05
-1.377859159228559e-06
1.3778591592272275e-06
6.8892957961388014e-06
1.3778591592272275e-06
-1.5156450751507488e-05
-4.8225070572976926e-05
-6.475938048371164e-05
-4.8225070572976926e-05
-3.720219729915378e-05
-4.5469352254521147e-05
-5.3736507209888505e-05
-4.8225070572976926e-05
-4.2713633936065354e-05
-5.3736507209888505e-05
-6.751509880216745e-05
-6.475938048371164e-05
-6.751509880216745e-05
-0.00010058371862363688
-6.751509880216745e-05
2.3423605706873515e-05
0.00018876670481422076
0.0004670942549782553
0.000753688960097657
0.0008611619745174325
0.0006903074387731741
0.0002686825360494386
-0.00021632388799877996
-0.00045055994506752175
-0.0004698499732967123
-0.000447804226749066
-0.0004312699168383313
-0.0003954455786984061
-0.0003045068741893651
-0.0002190796063172357
-0.00016672095826657574
-0.00013089662012665053
-0.00011160659189746003
-8.956084534981374e-05
-6.475938048371164e-05
-4.8225070572976926e-05
-6.475938048371164e-05
-5.6492225528344285e-05
-3.995791561760957e-05
-3.4446478980697995e-05
-1.240073243305171e-05
6.8892957961388014e-06
1.2400732433050376e-05
-1.377859159228559e-06
-1.377859159228559e-06
6.8892957961388014e-06
3.720219729915245e-05
4.271363393606403e-05
6.200366216525454e-05
7.30265354390777e-05
8.404940871290084e-05
8.404940871290084e-05
7.578225375753347e-05
6.200366216525454e-05
7.578225375753347e-05
9.782800030517979e-05
0.00010333943694209132
0.0001253851834897376
0.00014191949340047234
0.00013916377508201656
0.00016672095826657444
0.00020805673304341124
0.00021632388799877858
0.0002383696345464249
0.0002493925078202481
0.0002686825360494386
0.00027970540932326175
0.00029623971923399637
0.0003348197756923775
0.00037891126878767
0.00037891126878767
0.00037891126878767
0.0003982012970168605
0.0004340256351567857
0.0004478042267490647
0.0004781171282520784
0.0005166971847104594
0.0005166971847104594
0.0005249643396658268
0.0005359872129396498
0.0005442543678950173
0.0005552772411688404
0.0005442543678950173
0.0005525215228503846
0.0005635443961242077
0.0005690558327611192
0.0005635443961242077
0.0005442543678950173
0.0005304757763027383
0.0005001628747997245
0.00047536140993362247
0.0004643385366597993
0.0004505599450675205
0.00043126991683832994
0.00042024704356450677
0.0004064684519722279
0.000392689860379949
0.0003816669871061258
0.00037615555046921414
0.00036788839551384685
0.00035135408560311223
0.00034584264896620056
0.0003485983672846564
0.00034584264896620056
0.0003485983672846564
0.00035410980392156795
0.0003485983672846564
0.000340331212329289
0.00035135408560311223
0.0003623769588769353
0.00036788839551384685
0.0003733998321507585
0.00037615555046921414
0.0003623769588769353
0.0003596212405584795
0.0003623769588769353
0.00037615555046921414
0.0003816669871061258
0.0003816669871061258
0.0003954455786984048
0.0004064684519722279
0.00042300276188296266
0.0004367813534752416
0.00042851419851987416
0.0004367813534752416
0.0004505599450675205
0.000456071381704432
0.0004422927901121532
0.0004533156633859763
0.0004670942549782553
0.000456071381704432
0.0004891400015259016
0.0004918957198443572
0.0004946514381628131
0.0004781171282520784
0.0004946514381628131
0.0005001628747997245
0.0005001628747997245
0.0005139414663920035
0.0005056743114366363
0.000508430029755092
0.0005222086213473709
0.0005387429312581057
0.0005718115510795751
0.0005690558327611192
0.0005359872129396498
0.0005497658045319286
0.0005635443961242077
0.000547010086213473
0.000560788677805752
0.0005745672693980309
0.0005663001144426635
0.0005718115510795751
0.0005745672693980309
0.0005718115510795751
0.0005690558327611192
0.000560788677805752
0.0005663001144426635
0.0005911015793087656
0.0006186587624933234
0.0006462159456778814
0.0006682616922255276
0.0006572388189517045
0.0006214144808117793
0.0006131473258564118
0.0005966130159456772
0.000599368734264133
0.000637948790722514
0.0006572388189517045
0.0006434602273594254
0.0006021244525825888
0.0005911015793087656
0.0005938572976272215
0.0005883458609903097
0.0005828344243533982
0.0005718115510795751
0.000585590142671854
0.0005938572976272215
0.0005938572976272215
0.0005966130159456772
0.0006021244525825888
0.0005883458609903097
0.0005718115510795751
0.0005718115510795751
0.0005718115510795751
0.0005800787060349425
0.0005938572976272215
0.0006103916075379561
0.0006544831006332488
0.0007592003967345686
0.000949344960708018
0.0012083824826428621
0.0014178170748455018
0.0013654584267948416
0.0010623294117647053
0.0006214144808117793
0.0002549039444571596
0.00012262946517128183
0.00014467521171892812
0.00020805673304341124
0.0002824611276417174
0.00034584264896620056
0.0004533156633859763
0.0005387429312581057
0.0005442543678950173
0.0005580329594872961
0.0005773229877164866
0.0005663001144426635
0.0005938572976272215
0.0006214144808117793
0.0006407045090409697
0.0006351930724040583
0.0006324373540856024
0.0006296816357671465
0.0006269259174486908
0.0006462159456778814
0.0006434602273594254
0.0006324373540856024
0.000637948790722514
0.0006903074387731741
0.0006903074387731741
0.000679284565499351
0.0006903074387731741
0.0007206203402761877
0.0007206203402761877
0.0007068417486839086
0.000701330312046997
0.000701330312046997
0.0007095974670023644
0.0007399103685053779
0.000767467551689936
0.000767467551689936
0.0007619561150530243
0.0007564446784161128
0.0007729789883268476
0.0007784904249637591
0.0007757347066453035
0.0007977804531929496
0.0008032918898298613
0.0008363605096513305
0.0008776962844281674
0.0009052534676127252
0.0008611619745174325
0.0008694291294728002
0.0009024977492942696
0.0009300549324788276
0.0009438335240711064
0.000949344960708018
0.0009576121156633854
0.000971390707255664
0.00097414642557412
0.0009879250171663987
0.000985169298847943
0.0009686349889372082
0.0009631235523002968
0.0009631235523002968
0.0009631235523002968
0.0009576121156633854
0.0009272992141603715
0.0008942305943389022
0.0009024977492942696
0.0008694291294728002
0.0008336047913328749
0.0007950247348744939
0.0007702232700083917
0.0007564446784161128
0.0006985745937285414
0.000676528847180895
0.0006351930724040583
0.0006021244525825888
0.0006021244525825888
0.0005938572976272215
0.0005773229877164866
0.0005828344243533982
0.000599368734264133
0.0006076358892195001
0.0005745672693980309
0.0005304757763027383
0.0005497658045319286
0.0005414986495765614
0.0005249643396658268
0.0005304757763027383
0.0005387429312581057
0.000560788677805752
0.0005690558327611192
0.0005773229877164866
0.000560788677805752
0.000547010086213473
0.0005414986495765614
0.0005332314946211942
0.0005332314946211942
0.0005249643396658268
0.0005111857480735478
0.0005387429312581057
0.0005387429312581057
0.0005304757763027383
0.0005194529030289152
0.0005359872129396498
0.0005414986495765614
0.0005442543678950173
0.0005552772411688404
0.0005552772411688404
0.0005387429312581057
0.0005580329594872961
0.0005359872129396498
0.000547010086213473
0.0005497658045319286
0.0005552772411688404
0.0005718115510795751
0.0005580329594872961
0.0005552772411688404
0.0005497658045319286
0.0005359872129396498
0.0005139414663920035
0.0005166971847104594
0.0005194529030289152
0.0005359872129396498
0.0005332314946211942
0.0005249643396658268
0.0005139414663920035
0.0005277200579842825
0.0005690558327611192
0.0005580329594872961
0.0005414986495765614
0.000547010086213473
0.0005552772411688404
0.0005442543678950173
0.0005277200579842825
0.0005304757763027383
0.0005828344243533982
0.0005883458609903097
0.000599368734264133
0.0006131473258564118
0.0005966130159456772
0.0006021244525825888
0.000585590142671854
0.0005883458609903097
0.000585590142671854
0.0005745672693980309
0.0005525215228503846
0.0005359872129396498
0.0005194529030289152
0.0005056743114366363
0.0005332314946211942
0.0005304757763027383
0.0005249643396658268
0.0005166971847104594
0.0005029185931181804
0.0005249643396658268
0.0005332314946211942
0.0005166971847104594
0.0004808728465705341
0.0004808728465705341
0.0005056743114366363
0.0004974071564812689
0.0005194529030289152
0.0005332314946211942
0.0005332314946211942
0.0005690558327611192
0.000676528847180895
0.0008336047913328749
0.0010650851300831607
0.0012772754406042562
0.0012607411306935217
0.0010099707637140451
0.0006517273823147929
0.0002989954375524522
0.00013640805676356078
0.00013365233844510492
0.00013640805676356078
0.00017774383154039756
0.0002493925078202481
0.0003293083390554659
0.000392689860379949
0.00042851419851987416
0.0004478042267490647
0.00047536140993362247
0.0004808728465705341
0.000456071381704432
0.0004670942549782553
0.0005166971847104594
0.00047536140993362247
0.0005056743114366363
0.0005277200579842825
0.0005139414663920035
0.0004918957198443572
0.0004588271000228878
0.0004974071564812689
0.0005442543678950173
0.0005277200579842825
0.0005029185931181804
0.0005194529030289152
0.0005222086213473709
0.0005332314946211942
0.0005387429312581057
0.0005332314946211942
0.0005277200579842825
0.0004918957198443572
0.0005056743114366363
0.0005222086213473709
0.0005249643396658268
0.0005580329594872961
0.0005525215228503846
0.0005773229877164866
0.0005635443961242077
0.0005828344243533982
0.0006103916075379561
0.0006544831006332488
0.0006544831006332488
0.0006351930724040583
0.0006076358892195001
0.0006572388189517045
0.0007040860303654528
0.0006985745937285414
0.0007206203402761877
0.0007316432135500107
0.000753688960097657
0.000767467551689936
0.0007040860303654528
0.0006737731288624392
0.0007371546501869223
0.0007343989318684667
0.0007399103685053779
0.0007619561150530243
0.0007371546501869223
0.0007040860303654528
0.0007371546501869223
0.0006930631570916297
0.0006627502555886161
0.000679284565499351
0.000676528847180895
0.0006517273823147929
0.0006324373540856024
0.0006186587624933234
0.0005911015793087656
0.0005663001144426635
0.0005359872129396498
0.0005277200579842825
0.0005249643396658268
0.0005001628747997245
0.0005194529030289152
0.00048362856488898997
0.000469849973296711
0.0004588271000228878
0.0004781171282520784
0.0004781171282520784
0.0004726056916151668
0.000469849973296711
0.0004588271000228878
0.0004643385366597993
0.0004643385366597993
0.0004505599450675205
0.000456071381704432
0.0004478042267490647
0.0004478042267490647
0.0004808728465705341
0.0004726056916151668
0.0004478042267490647
0.0004367813534752416
0.0004450485084306089
0.0004808728465705341
0.0005001628747997245
0.0005111857480735478
0.0005194529030289152
0.0004781171282520784
0.0004918957198443572
0.0005001628747997245
0.0005166971847104594
0.0005111857480735478
0.0005249643396658268
0.0005249643396658268
0.0004588271000228878
0.000469849973296711
0.0004533156633859763
0.0004588271000228878
0.0004340256351567857
0.00042851419851987416
0.0004505599450675205
0.0004478042267490647
0.00042300276188296266
0.000392689860379949
0.0003844227054245816
0.00040371273365377215
0.00042575848020141833
0.00036788839551384685
0.000365132677195391
0.0003623769588769353
0.0003733998321507585
0.0004064684519722279
0.0004340256351567857
0.0005111857480735478
0.0005414986495765614
0.000508430029755092
0.0004863842832074457
0.0005029185931181804
0.0005029185931181804
0.0005056743114366363
0.0005001628747997245
0.0005277200579842825
0.0005938572976272215
0.000585590142671854
0.0005745672693980309
0.0005442543678950173
0.0005497658045319286
0.0005938572976272215
0.0005911015793087656
0.0005580329594872961
0.0005359872129396498
0.0005139414663920035
0.000547010086213473
0.0005249643396658268
0.0005111857480735478
0.0005442543678950173
0.0005552772411688404
0.0005001628747997245
0.000456071381704432
0.0004781171282520784
0.00048362856488898997
0.0005139414663920035
0.0005166971847104594
0.0005277200579842825
0.0005580329594872961
0.0005387429312581057
0.0004946514381628131
0.0004974071564812689
0.0005414986495765614
0.0006048801709010444
0.000687551720454718
0.0007840018616006707
0.0009879250171663987
0.0012001153276874944
0.0011973596093690386
0.0009548563973449294
0.0006076358892195001
0.0002769496910048059
0.00011987374685282605
0.00014191949340047234
0.00020254529640649968
0.00023285819790951333
0.0004064684519722279
0.0004588271000228878
0.0004974071564812689
0.0005304757763027383
0.0004974071564812689
0.0004670942549782553
0.0004505599450675205
0.00042575848020141833
0.0004395370717936973
0.0004643385366597993
0.0004726056916151668
0.00048362856488898997
0.0004670942549782553
0.0004726056916151668
0.0005497658045319286
0.0005635443961242077
0.0005359872129396498
0.0004863842832074457
0.0004781171282520784
0.0005056743114366363
0.0005249643396658268
0.0005222086213473709
0.000508430029755092
0.0004918957198443572
0.00048362856488898997
0.000508430029755092
0.0005029185931181804
0.0005552772411688404
0.0006131473258564118
0.0005966130159456772
0.0005938572976272215
0.0005800787060349425
0.0006269259174486908
0.0006186587624933234
0.0006076358892195001
0.0006131473258564118
0.0006324373540856024
0.0007316432135500107
0.0007564446784161128
0.0007702232700083917
0.0007619561150530243
0.0007454218051422897
0.0007481775234607456
0.0007371546501869223
0.0007592003967345686
0.0008032918898298613
0.0008225819180590517
0.0008363605096513305
0.0008749405661097116
0.0008859634393835348
0.0008776962844281674
0.0008887191577019906
0.000896986312657358
0.000896986312657358
0.0009300549324788276
0.0009162763408865484
0.0008914748760204465
0.0008832077210650791
0.0008694291294728002
0.0008225819180590517
0.0008005361715114055
0.0007922690165560381
0.0007840018616006707
0.0007702232700083917
0.0007399103685053779
0.0007481775234607456
0.0007123531853208202
0.0006434602273594254
0.000676528847180895
0.000679284565499351
0.0006737731288624392
0.0006131473258564118
0.0005966130159456772
0.0006324373540856024
0.0006434602273594254
0.0006903074387731741
0.0006544831006332488
0.0006241701991302349
0.000637948790722514
0.0006186587624933234
0.0005966130159456772
0.0005883458609903097
0.0006186587624933234
0.0006572388189517045
0.0006462159456778814
0.0006407045090409697
0.0006489716639963371
0.0006517273823147929
0.0006517273823147929
0.0006655059739070718
0.0006572388189517045
0.0006627502555886161
0.0006351930724040583
0.0006434602273594254
0.0006627502555886161
0.0006489716639963371
0.0006903074387731741
0.0007123531853208202
0.0006903074387731741
0.0006710174105439835
0.0006627502555886161
0.0006627502555886161
0.000701330312046997
0.0006985745937285414
0.000717864621957732
0.0007426660868238338
0.0007426660868238338
0.0007095974670023644
0.0007151089036392759
0.0007426660868238338
0.0007509332417792012
0.0007233760585946433
0.0007426660868238338
0.0007509332417792012
0.000767467551689936
0.0007647118333714802
0.0007509332417792012
0.0007509332417792012
0.0007426660868238338
0.0007647118333714802
0.0007812461432822147
0.0007702232700083917
0.0007151089036392759
0.0007095974670023644
0.000753688960097657
0.0007619561150530243
0.0007729789883268476
0.000806047608148317
0.0008225819180590517
0.0008501391012436096
0.0008473833829251538
0.0008308490730144192
0.0008308490730144192
0.0007895132982375822
0.0008005361715114055
0.0007619561150530243
0.0008225819180590517
0.0008280933546959632
0.0008005361715114055
0.0007619561150530243
0.0007123531853208202
0.0007343989318684667
0.0007371546501869223
0.0007426660868238338
0.0007481775234607456
0.0007509332417792012
0.0007619561150530243
0.0007702232700083917
0.0007343989318684667
0.0006958188754100854
0.0007343989318684667
0.0007757347066453035
0.0007977804531929496
0.0007647118333714802
0.0007481775234607456
0.0008528948195620654
0.0010099707637140451
0.0011532681162737465
0.0013654584267948416
0.0015087557793545424
0.0014343513847562366
0.0010981537499046305
0.0006489716639963371
0.0003982012970168605
0.00038993414206149314
0.0004478042267490647
0.00048362856488898997
0.0005222086213473709
0.0005966130159456772
0.0006627502555886161
0.0007288874952315547
0.0007619561150530243
0.0007619561150530243
0.0007619561150530243
0.0007895132982375822
0.0007757347066453035
0.0007812461432822147
0.0007840018616006707
0.0007564446784161128
0.0007784904249637591
0.0007977804531929496
0.0008253376363775078
0.0008639176928358884
0.0008391162279697863
0.00081707048142214
0.0008308490730144192
0.000858406256198977
0.0008528948195620654
0.0008032918898298613
0.0007922690165560381
0.0008639176928358884
0.0008914748760204465
0.0009107649042496368
0.0008859634393835348
0.0008473833829251538
0.0008280933546959632
0.0008501391012436096
0.0008859634393835348
0.0009272992141603715
0.000908009185931181
0.0008639176928358884
0.0008832077210650791
0.0009548563973449294
0.000985169298847943
0.000971390707255664
0.0009658792706187528
0.0010127264820325008
0.0010320165102616916
0.001051306538490882
0.0010733522850385282
0.0010678408484016168
0.001048550820172426
0.0010292607919432355
0.0010265050736247801
0.0010788637216754397
0.0010981537499046305
0.0010981537499046305
0.001103665186541542
0.0011422452429999228
0.001167046707866025
0.001167046707866025
0.0011532681162737465
0.001178069581139848
0.0011918481727321271
0.0011477566796368347
0.0011119323414969095
0.0010953980315861747
0.0010595736934462493
0.0010733522850385282
0.0010761080033569843
0.0010265050736247801
0.0009879250171663987
0.000949344960708018
0.0009162763408865484
0.0008997420309758136
0.0009024977492942696
0.0009300549324788276
0.0008914748760204465
0.0009190320592050041
0.000896986312657358
0.0008308490730144192
0.0008088033264667726
0.0008280933546959632
0.0008088033264667726
0.0008143147631036844
0.0008639176928358884
0.000858406256198977
0.0008115590447852286
0.0008088033264667726
0.0008143147631036844
0.0008391162279697863
0.0008418719462882423
0.0008391162279697863
0.0008776962844281674
0.0008666734111543443
0.0008391162279697863
0.0008143147631036844
0.0007647118333714802
0.0007840018616006707
0.0007895132982375822
0.0007812461432822147
0.0008115590447852286
0.0008253376363775078
0.0008418719462882423
0.0008611619745174325
0.0008501391012436096
0.0008473833829251538
0.0008336047913328749
0.0008446276646066979
0.000855650537880521
0.0008363605096513305
0.0008363605096513305
0.0008308490730144192
0.00081707048142214
0.0008308490730144192
0.0008666734111543443
0.0008887191577019906
0.0008776962844281674
0.000855650537880521
0.000858406256198977
0.0008666734111543443
0.0008749405661097116
0.0008280933546959632
0.0007757347066453035
0.0008115590447852286
0.0008198261997405958
0.0008225819180590517
0.0008501391012436096
0.0008914748760204465
0.0008887191577019906
0.0009052534676127252
0.0009355663691157388
0.0008859634393835348
0.0008721848477912556
0.0008776962844281674
0.0008776962844281674
0.0008887191577019906
0.0008832077210650791
0.000896986312657358
0.0009383220874341949
0.0009383220874341949
0.0009107649042496368
0.0008473833829251538
0.000858406256198977
0.0008694291294728002
0.0008721848477912556
0.0009024977492942696
0.0009135206225680924
0.0009052534676127252
0.0008749405661097116
0.000855650537880521
0.0008528948195620654
0.0008336047913328749
0.000858406256198977
0.000858406256198977
0.0008446276646066979
0.0008501391012436096
0.0008363605096513305
0.0008501391012436096
0.0008336047913328749
0.0007950247348744939
0.0008198261997405958
0.0008280933546959632
0.0008032918898298613
0.0008253376363775078
0.0009024977492942696
0.001051306538490882
0.0012965654688334468
0.001489465751125352
0.0015721373006790259
0.0014563971313038828
0.0011422452429999228
0.0007454218051422897
0.0004450485084306089
0.0004367813534752416
0.0005056743114366363
0.000469849973296711
0.0004918957198443572
0.0006131473258564118
0.0007647118333714802
0.0008528948195620654
0.0008363605096513305
0.0007426660868238338
0.0007123531853208202
0.000767467551689936
0.0008639176928358884
0.0008666734111543443
0.0008391162279697863
0.0008308490730144192
0.0007812461432822147
0.0008198261997405958
0.0008446276646066979
0.0008280933546959632
0.000855650537880521
0.0008666734111543443
0.0008280933546959632
0.0007922690165560381
0.0008501391012436096
0.0008666734111543443
0.0008832077210650791
0.0008721848477912556
0.0008501391012436096
0.000896986312657358
0.0009300549324788276
0.0009383220874341949
0.0009465892423895617
0.0008694291294728002
0.0008666734111543443
0.0008914748760204465
0.0008942305943389022
0.0008501391012436096
0.0008446276646066979
0.0008997420309758136
0.000908009185931181
0.0009135206225680924
0.0009576121156633854
0.0010292607919432355
0.0010154822003509568
0.000985169298847943
0.0009961921721217662
0.0010237493553063243
0.0010540622568093376
0.0010182379186694126
0.0010099707637140451
0.0010044593270771337
0.0010265050736247801
0.0010678408484016168
0.0010871308766308072
0.001125710933089188
0.0011229552147707324
0.0011009094682230861
0.0010843751583123511
0.0010926423132677188
0.0010595736934462493
0.001051306538490882
0.0010871308766308072
0.0010816194399938957
0.0010430393835355147
0.0010402836652170589
0.0009906807354848547
0.000971390707255664
0.0009410778057526506
0.00092178777752346
0.0009328106507972832
0.000908009185931181
0.0008666734111543443
0.0008501391012436096
0.0008749405661097116
0.0008225819180590517
0.0008088033264667726
0.0007977804531929496
0.0007895132982375822
0.0007509332417792012
0.0007481775234607456
0.0007647118333714802
0.0007426660868238338
0.0007784904249637591
0.000767467551689936
0.0006958188754100854
0.0006847960021362622
0.0007151089036392759
0.000701330312046997
0.0006847960021362622
0.0006930631570916297
0.0007316432135500107
0.0007426660868238338
0.0007564446784161128
0.0007592003967345686
0.0007729789883268476
0.000806047608148317
0.0008225819180590517
0.0007592003967345686
0.0006655059739070718
0.0006462159456778814
0.0006737731288624392
0.0006737731288624392
0.0006930631570916297
0.0007233760585946433
0.0007040860303654528
0.0006930631570916297
0.0006985745937285414
0.0007040860303654528
0.0007095974670023644
0.0007151089036392759
0.0007040860303654528
0.0006985745937285414
0.0006985745937285414
0.000701330312046997
0.000701330312046997
0.0006958188754100854
0.0006847960021362622
0.0006903074387731741
0.0007095974670023644
0.0006820402838178067
0.0006296816357671465
0.0006544831006332488
0.0006544831006332488
0.000676528847180895
0.0006627502555886161
0.0006544831006332488
0.0006903074387731741
0.0006820402838178067
0.000676528847180895
0.0007233760585946433
0.000701330312046997
0.0006572388189517045
0.0006737731288624392
0.0007371546501869223
0.0008005361715114055
0.0007784904249637591
0.0007426660868238338
0.0007151089036392759
0.0006930631570916297
0.0006655059739070718
0.0006958188754100854
0.0007261317769130989
0.000701330312046997
0.0006241701991302349
0.0005745672693980309
0.0005966130159456772
0.0006186587624933234
0.0006407045090409697
0.0006489716639963371
0.0006241701991302349
0.0006296816357671465
0.0006186587624933234
0.0006407045090409697
0.0006489716639963371
0.0006434602273594254
0.0006241701991302349
0.0006021244525825888
0.0006131473258564118
0.0006103916075379561
0.0006407045090409697
0.0006820402838178067
0.0007895132982375822
0.0010237493553063243
0.0012607411306935217
0.0013902598916609437
0.0013103440604257258
0.0010044593270771337
0.000585590142671854
0.00024388107118333642
0.00017498811322194178
0.00018601098649576498
0.00019427814145113231
0.0002879725642786291
0.00036788839551384685
0.0004450485084306089
0.0005580329594872961
0.0006131473258564118
0.0006296816357671465
0.0005911015793087656
0.0005773229877164866
0.000560788677805752
0.0005525215228503846
0.0005828344243533982
0.0006186587624933234
0.0006572388189517045
0.0006572388189517045
0.000637948790722514
0.0006131473258564118
0.0005800787060349425
0.0006241701991302349
0.0006655059739070718
0.000599368734264133
0.000560788677805752
0.0005580329594872961
0.0005414986495765614
0.0005938572976272215
0.0006103916075379561
0.0006076358892195001
0.0006434602273594254
0.0006903074387731741
0.0006985745937285414
0.000676528847180895
0.0006655059739070718
0.0006489716639963371
0.0006517273823147929
0.0006737731288624392
0.0006847960021362622
0.0007040860303654528
0.0006655059739070718
0.0006682616922255276
0.0006737731288624392
0.0007123531853208202
0.0006958188754100854
0.0007371546501869223
0.0008143147631036844
0.0007812461432822147
0.0007757347066453035
0.0007867575799191265
0.0007729789883268476
0.0007647118333714802
0.0007812461432822147
0.0008280933546959632
0.00081707048142214
0.0008198261997405958
0.0008253376363775078
0.000806047608148317
0.0007950247348744939
0.0007481775234607456
0.000753688960097657
0.0007757347066453035
0.0008032918898298613
0.0007729789883268476
0.0007564446784161128
0.0007426660868238338
0.0007261317769130989
0.0007316432135500107
0.0006599945372701603
0.0006131473258564118
0.0005745672693980309
0.0005304757763027383
0.0005277200579842825
0.0005773229877164866
0.0005911015793087656
0.0005525215228503846
0.0005277200579842825
0.0005277200579842825
0.0004918957198443572
0.0004588271000228878
0.00042575848020141833
0.00041473560692759526
0.0004064684519722279
0.0004367813534752416
0.0004478042267490647
0.0004450485084306089
0.0004367813534752416
0.000456071381704432
0.0005111857480735478
0.0004643385366597993
0.0004450485084306089
0.00043126991683832994
0.00041473560692759526
0.00042024704356450677
0.0004588271000228878
0.00041473560692759526
0.0004533156633859763
0.0004505599450675205
0.00042300276188296266
0.0004367813534752416
0.0004092241702906837
0.0004340256351567857
0.00042024704356450677
0.000456071381704432
0.000456071381704432
0.0004946514381628131
0.0004367813534752416
0.000365132677195391
0.0003844227054245816
0.00041197988860913943
0.0004422927901121532
0.00042300276188296266
0.0004009570153353164
0.00038993414206149314
0.00041197988860913943
0.00041749132524605104
0.0003844227054245816
0.00034584264896620056
0.00033206405737392166
0.00037064411383230263
0.00042575848020141833
0.0004478042267490647
0.00041473560692759526
0.0004064684519722279
0.0004064684519722279
0.0003982012970168605
0.00040371273365377215
0.00041749132524605104
0.0004340256351567857
0.000392689860379949
0.0003982012970168605
0.00041197988860913943
0.00041473560692759526
0.0003816669871061258
0.00040371273365377215
0.0004340256351567857
0.0004367813534752416
0.00042851419851987416
0.0004092241702906837
0.00038993414206149314
0.0004064684519722279
0.00038993414206149314
0.00041749132524605104
0.00043126991683832994
0.00043126991683832994
0.000456071381704432
0.00040371273365377215
0.00035410980392156795
0.000315529747463187
0.0002934840009155406
0.0002769496910048059
0.000315529747463187
0.00035135408560311223
0.0003485983672846564
0.0003182854657816428
0.0003348197756923775
0.000365132677195391
0.0003485983672846564
0.0003348197756923775
0.0003348197756923775
0.00034584264896620056
0.0003982012970168605
0.0004891400015259016
0.000679284565499351
0.0009658792706187528
0.0012083824826428621
0.0011890924544136717
0.0008776962844281674
0.00042300276188296266
7.02708171206219e-05
-7.85379720759906e-05
-0.0001171180285343716
-4.2713633936065354e-05
9.64501411459459e-06
6.475938048371032e-05
0.00013089662012664922
0.0002135681696803228
0.00027970540932326175
0.0002989954375524522
0.00027970540932326175
0.00032104118410009855
0.0003596212405584795
0.00034584264896620056
0.00034584264896620056
0.00029623971923399637
0.000301751155870908
0.00032379690241855427
0.0003568655222400236
0.0003596212405584795
0.000365132677195391
0.00037064411383230263
0.0003733998321507585
0.00035135408560311223
0.00032379690241855427
0.0003430869306477448
0.0003816669871061258
0.00038717842374303736
0.0003844227054245816
0.0003816669871061258
0.00042024704356450677
0.00042024704356450677
0.0003954455786984048
0.0003844227054245816
0.00038993414206149314
0.0004588271000228878
0.000456071381704432
0.0004533156633859763
0.0004615828183413437
0.00042851419851987416
0.00042300276188296266
0.0004422927901121532
0.0004781171282520784
0.0004726056916151668
0.0004450485084306089
0.000508430029755092
0.0005387429312581057
0.0005525215228503846
0.0005718115510795751
0.0005552772411688404
0.0005552772411688404
0.0005938572976272215
0.0006186587624933234
0.0005745672693980309
0.0005663001144426635
0.0005883458609903097
0.0005938572976272215
0.0005773229877164866
0.0005773229877164866
0.0005552772411688404
0.0005580329594872961
0.0005663001144426635
0.0005166971847104594
0.0004588271000228878
0.0004808728465705341
0.0004863842832074457
0.000469849973296711
0.0004505599450675205
0.0004395370717936973
0.00041749132524605104
0.00041749132524605104
0.00036788839551384685
0.0003127740291447311
0.00029623971923399637
0.0003072625925078196
0.00027970540932326175
0.0002686825360494386
0.00024388107118333642
0.0002383696345464249
0.000210812451361867
0.00021632388799877858
0.00019427814145113231
0.00017774383154039756
0.00016120952162966288
0.0001556980849927513
0.00017774383154039756
0.0001970338597695881
0.00020254529640649968
0.00020805673304341124
0.0002218353246356902
0.00023010247959105753
0.0002493925078202481
0.00025214822613870384
0.0002549039444571596
0.0002383696345464249
0.00024112535286488067
0.0002135681696803228
0.000172232394903486
0.00014467521171892812
0.00013640805676356078
0.00014191949340047234
0.00015845380331120705
0.00019427814145113231
0.0002135681696803228
0.0002135681696803228
0.0002135681696803228
0.00018049954985885336
0.00015845380331120705
0.00018876670481422076
0.00022459104295414594
0.0002190796063172344
0.00020254529640649968
0.00016396523994811866
0.0001556980849927513
0.00018601098649576498
0.0002135681696803228
0.0001970338597695881
0.00016672095826657444
0.0001694766765850302
0.00017498811322194178
0.00018601098649576498
0.00021632388799877858
0.00022459104295414594
0.00018876670481422076
0.00019978957808804387
0.0002218353246356902
0.00024388107118333642
0.00023285819790951333
0.00020254529640649968
0.00021632388799877858
0.00023010247959105753
0.00016672095826657444
0.00017774383154039756
0.00024388107118333642
0.0002549039444571596
0.00023561391622796914
0.0002218353246356902
0.00016396523994811866
0.00018601098649576498
0.000172232394903486
0.00011711802853437029
0.00016672095826657444
0.0001832552681773092
0.00017774383154039756
0.00016672095826657444
0.00018601098649576498
0.00014191949340047234
0.0001556980849927513
0.00016396523994811866
0.00014743093003738393
0.0001253851834897376
0.00013916377508201656
0.00012262946517128183
0.00011711802853437029
0.00018049954985885336
0.00025214822613870384
0.00042575848020141833
0.000679284565499351
0.0008832077210650791
0.0008694291294728002
0.0006131473258564118
0.0001694766765850302
-0.00021356816968032413
-0.00032655262073701135
-0.0002962397192339978
-0.0002686825360494398
-0.00023285819790951464
-0.00018876670481422206
-0.00010609515526054846
-1.7912169069963278e-05
1.5156450751506162e-05
4.546935225451981e-05
5.9247943846798756e-05
3.9957915617608246e-05
5.649222552834297e-05
8.129369039444505e-05
9.507228198672396e-05
9.23165636682682e-05
9.23165636682682e-05
7.853797207598924e-05
0.00012814090180819342
0.00018049954985885336
0.00018601098649576498
0.00016120952162966288
0.00013089662012664922
0.00014743093003738393
0.00014467521171892812
0.00013365233844510492
0.00016120952162966288
0.0001694766765850302
0.00016672095826657444
0.0001694766765850302
0.00017498811322194178
0.00016396523994811866
0.00015845380331120705
0.0001556980849927513
0.00017774383154039756
0.00015294236667429551
0.00017498811322194178
0.0002549039444571596
0.0002741939726863501
0.0002218353246356902
0.00021632388799877858
0.0002218353246356902
0.00024663678950179223
0.0002576596627756154
0.00026592681773098274
0.0003072625925078196
0.000315529747463187
0.00032379690241855427
0.0003127740291447311
0.00030450687418936376
0.00034584264896620056
0.0003596212405584795
0.0003430869306477448
0.0003127740291447311
0.0003375754940108332
0.0003816669871061258
0.00041473560692759526
0.0003954455786984048
0.0003485983672846564
0.0003127740291447311
0.000315529747463187
0.0002824611276417174
0.0002934840009155406
0.00032104118410009855
0.0002989954375524522
0.00027143825436789435
0.000263171099412527
0.00024663678950179223
0.0002135681696803228
0.00018049954985885336
0.00012814090180819342
8.404940871290084e-05
5.649222552834297e-05
5.373650720988717e-05
1.7912169069961946e-05
1.2400732433050376e-05
3.444647898069667e-05
9.64501411459459e-06
1.5156450751506162e-05
-4.133577477684346e-06
-1.7912169069963278e-05
-6.889295796140132e-06
1.2400732433050376e-05
1.5156450751506162e-05
3.720219729915245e-05
6.8892957961388014e-06
1.3778591592272275e-06
-4.133577477684346e-06
-1.5156450751507488e-05
-6.889295796140132e-06
-9.64501411459592e-06
-2.342360570687485e-05
-1.5156450751507488e-05
-2.342360570687485e-05
-3.995791561760957e-05
-5.6492225528344285e-05
-3.720219729915378e-05
-2.6179324025330647e-05
-3.4446478980697995e-05
-3.169076066224221e-05
-3.995791561760957e-05
-4.5469352254521147e-05
-2.342360570687485e-05
-3.720219729915378e-05
-8.956084534981374e-05
-7.85379720759906e-05
-4.2713633936065354e-05
-3.4446478980697995e-05
-3.169076066224221e-05
-3.720219729915378e-05
-5.098078889143272e-05
-6.200366216525588e-05
-6.200366216525588e-05
-6.751509880216745e-05
-6.200366216525588e-05
-6.200366216525588e-05
-7.027081712062322e-05
-5.098078889143272e-05
-6.475938048371164e-05
-6.475938048371164e-05
-5.6492225528344285e-05
-5.6492225528344285e-05
-7.027081712062322e-05
-8.680512703135793e-05
-6.200366216525588e-05
-6.200366216525588e-05
-5.6492225528344285e-05
-2.342360570687485e-05
-9.64501411459592e-06
-2.6179324025330647e-05
-5.9247943846800084e-05
-0.00012538518348973897
-0.0001171180285343716
-8.680512703135793e-05
-9.231656366826955e-05
-0.00011160659189746003
-0.00010058371862363688
-9.507228198672531e-05
-9.507228198672531e-05
-8.680512703135793e-05
-0.00011160659189746003
-0.0001171180285343716
-0.0001198737468528274
-0.00011436231021591582
-0.00010333943694209268
-0.000150186648355841
-0.0001584538033112084
-0.00014743093003738526
-0.00012814090180819475
-0.00010609515526054846
-0.00011160659189746003
-0.0001391637750820179
-0.0001777438315403989
-0.0001364080567635621
-4.2713633936065354e-05
7.30265354390777e-05
0.00024112535286488067
0.0004422927901121532
0.000599368734264133
0.0005387429312581057
0.00024388107118333642
-0.00018601098649576628
-0.0005249643396658282
-0.0005800787060349438
-0.0005552772411688418
-0.0005663001144426648
-0.0005580329594872974
-0.000500162874799726
-0.00041749132524605234
-0.0003651326771953924
-0.0003127740291447324
-0.00025765966277561676
-0.00023836963454642628
-0.00022734676127260308
-0.00023285819790951464
-0.00018876670481422206
-0.00018876670481422206
-0.00021632388799877996
-0.00018325526817731047
-0.00017223239490348733
-0.00016947667658503157
-0.0001584538033112084
-0.00016672095826657574
-0.00014743093003738526
-0.00012814090180819475
-0.0001226294651712832
-0.00014191949340047367
-0.000150186648355841
-0.0001391637750820179
-0.00012538518348973897
-0.0001198737468528274
-9.78280003051811e-05
-0.00011160659189746003
-0.0001336523384451063
-0.00013089662012665053
-0.00010609515526054846
-5.6492225528344285e-05
-4.2713633936065354e-05
-6.200366216525588e-05
-3.995791561760957e-05
-3.4446478980697995e-05
-6.200366216525588e-05
-4.8225070572976926e-05
1.7912169069961946e-05
4.546935225451981e-05
3.9957915617608246e-05
2.6179324025329308e-05
2.066788738841773e-05
4.546935225451981e-05
5.098078889143139e-05
7.30265354390777e-05
0.00010333943694209132
0.00010885087357900291
0.00010885087357900291
8.129369039444505e-05
9.23165636682682e-05
0.00013365233844510492
0.00014191949340047234
0.00015018664835583973
0.00011436231021591448
7.578225375753347e-05
8.404940871290084e-05
8.129369039444505e-05
5.649222552834297e-05
4.271363393606403e-05
1.7912169069961946e-05
-4.2713633936065354e-05
-8.129369039444639e-05
-8.680512703135793e-05
-0.00011436231021591582
-0.00011160659189746003
-0.0001198737468528274
-0.00014743093003738526
-0.00019152242313267784
-0.00019703385976958942
-0.00020530101472495681
-0.0002190796063172357
-0.0002108124513618684
-0.0002466367895017936
-0.00027143825436789566
-0.00027970540932326305
-0.00029348400091554195
-0.00027143825436789566
-0.00027970540932326305
-0.0003485983672846577
-0.0003513540856031135
-0.00032379690241855563
-0.00030175115587090934
-0.0003045068741893651
-0.00032379690241855563
-0.0003430869306477461
-0.0003568655222400251
-0.0003568655222400251
-0.0003348197756923787
-0.00032379690241855563
-0.00032655262073701135
-0.00030175115587090934
-0.0002989954375524536
-0.0003100183108262768
-0.00030726259250782084
-0.00030726259250782084
-0.00030175115587090934
-0.0002604153810940725
-0.00026592681773098404
-0.0002989954375524536
-0.00028797256427863044
-0.0002521482261387052
-0.00023561391622797047
-0.00022459104295414727
-0.00023561391622797047
-0.0002466367895017936
-0.00029348400091554195
-0.0003430869306477461
-0.0003844227054245829
-0.000370644113832304
-0.00032655262073701135
-0.00029072828259708617
-0.0002852168459601746
-0.0002604153810940725
-0.0002824611276417188
-0.0003127740291447324
-0.0003100183108262768
-0.00029072828259708617
-0.0003127740291447324
-0.00030175115587090934
-0.0002549039444571609
-0.0002080567330434125
-0.00019703385976958942
-0.0001777438315403989
-0.00014743093003738526
-0.0001171180285343716
-0.0001198737468528274
-0.00014467521171892948
-0.00016396523994811996
-0.00016947667658503157
-0.00014743093003738526
-0.00013089662012665053
-0.00016396523994811996
-0.00019703385976958942
-0.00020254529640650095
-0.00019703385976958942
-0.00020530101472495681
-0.00021356816968032413
-0.0002521482261387052
-0.00027694969100480727
-0.0002686825360494398
-0.0002549039444571609
-0.00024112535286488197
-0.00024939250782024937
-0.0002686825360494398
-0.00023285819790951464
-0.0002108124513618684
-0.00021356816968032413
-0.00022734676127260308
-0.00018601098649576628
-5.3736507209888505e-05
0.00013089662012664922
0.00037064411383230263
0.0005442543678950173
0.00047536140993362247
0.00015018664835583973
-0.00031828546578164407
-0.000629681635767148
-0.0006792845654993521
-0.0006324373540856038
-0.0005828344243533996
-0.0005084300297550932
-0.00044504850843061025
-0.00041749132524605234
-0.00036788839551384826
-0.0003320640573739229
-0.00036237695887693665
-0.000370644113832304
-0.0003348197756923787
-0.00031828546578164407
-0.0003127740291447324
-0.0002962397192339978
-0.0002686825360494398
-0.00024939250782024937
-0.0002604153810940725
-0.00028797256427863044
-0.0003100183108262768
-0.0002962397192339978
-0.0002686825360494398
-0.0002466367895017936
-0.00023285819790951464
-0.00024112535286488197
-0.0002604153810940725
-0.00027419397268635144
-0.00022734676127260308
-0.00021356816968032413
-0.0002080567330434125
-0.00021356816968032413
-0.0002190796063172357
-0.00021356816968032413
-0.00019152242313267784
-0.00021356816968032413
-0.00023285819790951464
-0.00022459104295414727
-0.00018325526817731047
-0.0001584538033112084
-0.0001336523384451063
-0.0001364080567635621
-0.00013089662012665053
-0.0001226294651712832
-0.0001198737468528274
-0.0001171180285343716
-9.507228198672531e-05
-4.2713633936065354e-05
-2.6179324025330647e-05
-2.342360570687485e-05
-1.7912169069963278e-05
-9.64501411459592e-06
-6.889295796140132e-06
1.3778591592272275e-06
-6.889295796140132e-06
-1.7912169069963278e-05
-4.133577477684346e-06
-2.6179324025330647e-05
-3.720219729915378e-05
-1.5156450751507488e-05
-1.377859159228559e-06
1.5156450751506162e-05
-1.7912169069963278e-05
-4.5469352254521147e-05
-5.098078889143272e-05
-9.507228198672531e-05
-0.00012538518348973897
-0.00012538518348973897
-0.00014467521171892948
-0.00016947667658503157
-0.00020530101472495681
-0.00027970540932326305
-0.00027143825436789566
-0.0002824611276417188
-0.0003155297474631883
-0.0003348197756923787
-0.00036237695887693665
-0.0003816669871061273
-0.0003513540856031135
-0.0003100183108262768
-0.0003403312123292903
-0.0003816669871061273
-0.0003596212405584808
-0.0003651326771953924
-0.00040646845197222917
-0.000447804226749066
-0.0004285141985198755
-0.0003899341420614945
-0.00039268986037995033
-0.00039268986037995033
-0.0003816669871061273
-0.00037891126878767127
-0.00037891126878767127
-0.0003844227054245829
-0.00037339983215075977
-0.0003816669871061273
-0.0003430869306477461
-0.00035410980392156926
-0.0003651326771953924
-0.00037891126878767127
-0.0003844227054245829
-0.00037615555046921565
-0.00036788839551384826
-0.0003596212405584808
-0.0003348197756923787
-0.00032379690241855563
-0.0003403312123292903
-0.00030726259250782084
-0.0003403312123292903
-0.000370644113832304
-0.0003844227054245829
-0.0003982012970168618
-0.0003816669871061273
-0.000370644113832304
-0.000370644113832304
-0.0003513540856031135
-0.0003568655222400251
-0.00036237695887693665
-0.00036237695887693665
-0.0003844227054245829
-0.00036237695887693665
-0.0003458426489662019
-0.0003403312123292903
-0.0003320640573739229
-0.00032379690241855563
-0.00032655262073701135
-0.00032655262073701135
-0.00030726259250782084
-0.0003045068741893651
-0.00030175115587090934
-0.00027970540932326305
-0.0002466367895017936
-0.0002686825360494398
-0.0003045068741893651
-0.0003458426489662019
-0.0003458426489662019
-0.00030726259250782084
-0.0003375754940108345
-0.0004202470435645082
-0.0003513540856031135
-0.0003513540856031135
-0.0003982012970168618
-0.000423002761882964
-0.00041749132524605234
-0.0004147356069275966
-0.00036788839551384826
-0.0003485983672846577
-0.00039268986037995033
-0.00040371273365377345
-0.00040646845197222917
-0.0003596212405584808
-0.00030175115587090934
-0.0003513540856031135
-0.0003513540856031135
-0.00023010247959105888
-2.8935042343786426e-05
0.00018601098649576498
0.0003954455786984048
0.0004340256351567857
0.00012814090180819342
-0.0003430869306477461
-0.000745421805142291
-0.0008473833829251552
-0.0008308490730144205
-0.0007867575799191276
-0.0007343989318684678
-0.0006737731288624405
-0.0005938572976272227
-0.0005029185931181816
-0.0004560713817044334
-0.00045055994506752175
-0.0004312699168383313
-0.0003485983672846577
-0.00027694969100480727
-0.00030175115587090934
-0.0003293083390554673
-0.00032379690241855563
-0.00039268986037995033
-0.0003954455786984061
-0.000370644113832304
-0.000423002761882964
-0.00047536140993362393
-0.0004257584802014197
-0.0003651326771953924
-0.0003568655222400251
-0.0003568655222400251
-0.000370644113832304
-0.0003899341420614945
-0.0003568655222400251
-0.0003100183108262768
-0.0003045068741893651
-0.00029348400091554195
-0.00025765966277561676
-0.00027694969100480727
-0.0003458426489662019
-0.00037339983215075977
-0.0003127740291447324
-0.00023836963454642628
-0.00023010247959105888
-0.0002604153810940725
-0.0003045068741893651
-0.00027970540932326305
-0.00022734676127260308
-0.00023561391622797047
-0.00022734676127260308
-0.00018601098649576628
-0.00022734676127260308
-0.00016947667658503157
-0.0001364080567635621
-0.0001364080567635621
-0.00013089662012665053
-0.000150186648355841
-0.00017223239490348733
-0.00016672095826657574
-0.0001336523384451063
-9.78280003051811e-05
-8.404940871290214e-05
-3.169076066224221e-05
-9.64501411459592e-06
-4.8225070572976926e-05
-0.00014191949340047367
-0.00018876670481422206
-0.00016947667658503157
-0.0001364080567635621
-0.00011436231021591582
-0.00014743093003738526
-0.0002521482261387052
-0.00030726259250782084
-0.0002989954375524536
-0.00027694969100480727
-0.00030175115587090934
-0.000370644113832304
-0.00040095701533531767
-0.00045055994506752175
-0.0004946514381628143
-0.0004615828183413449
-0.00045055994506752175
-0.00045055994506752175
-0.00040095701533531767
-0.00040922417029068495
-0.00043953707179369863
-0.0004891400015259028
-0.0005277200579842838
-0.0005359872129396513
-0.0004560713817044334
-0.00043953707179369863
-0.00048087284657053543
-0.0005249643396658282
-0.0005277200579842838
-0.0004891400015259028
-0.0004974071564812702
-0.00048638428320744705
-0.000500162874799726
-0.0005359872129396513
-0.0005470100862134743
-0.0005139414663920051
-0.0005194529030289164
-0.0005056743114366376
-0.00045331566338597764
-0.000447804226749066
-0.00047536140993362393
-0.0005194529030289164
-0.0005166971847104609
-0.00048638428320744705
-0.00047536140993362393
-0.00047260569161516804
-0.00047536140993362393
-0.000423002761882964
-0.0004202470435645082
-0.0004698499732967123
-0.00047536140993362393
-0.0005139414663920051
-0.00054976580453193
-0.0005304757763027395
-0.0005056743114366376
-0.0004891400015259028
-0.0005056743114366376
-0.0004974071564812702
-0.00047536140993362393
-0.00046709425497825643
-0.0003871784237430386
-0.0003899341420614945
-0.0004257584802014197
-0.0004312699168383313
-0.00046433853665980087
-0.0004891400015259028
-0.00045055994506752175
-0.0004147356069275966
-0.00036788839551384826
-0.00030726259250782084
-0.0002962397192339978
-0.0003155297474631883
-0.0003458426489662019
-0.0003982012970168618
-0.00040646845197222917
-0.00040646845197222917
-0.0003871784237430386
-0.0003320640573739229
-0.0003651326771953924
-0.0003982012970168618
-0.000447804226749066
-0.0004918957198443586
-0.0005332314946211955
-0.000500162874799726
-0.000447804226749066
-0.000423002761882964
-0.0003982012970168618
-0.00040371273365377345
-0.00044504850843061025
-0.0004560713817044334
-0.0004422927901121546
-0.0004202470435645082
-0.00043678135347524285
-0.00044504850843061025
-0.0003844227054245829
-0.0003348197756923787
-0.0003430869306477461
-0.0002989954375524536
-0.00016947667658503157
5.098078889143139e-05
0.00027143825436789435
0.00032655262073701005
0.0001253851834897376
-0.00023285819790951464
-0.0006792845654993521
-0.0009824135805294888
-0.0009961921721217675
-0.0009245434958419172
-0.0008363605096513318
-0.0007757347066453045
-0.000745421805142291
-0.0006627502555886173
-0.0005993687342641343
-0.0005249643396658282
-0.0004781171282520797
-0.00047260569161516804
-0.0004615828183413449
-0.00048087284657053543
-0.0005166971847104609
-0.00046433853665980087
-0.0004147356069275966
-0.0004422927901121546
-0.000500162874799726
-0.00041749132524605234
-0.00043402563515678713
-0.0004615828183413449
-0.00048087284657053543
-0.00041197988860914084
-0.0003458426489662019
-0.00032379690241855563
-0.00036788839551384826
-0.00047536140993362393
-0.00046433853665980087
-0.00043678135347524285
-0.00043678135347524285
-0.0003568655222400251
-0.0002604153810940725
-0.0003320640573739229
-0.00041749132524605234
-0.00039268986037995033
-0.0003127740291447324
-0.0002989954375524536
-0.00031828546578164407
-0.00039268986037995033
-0.00045055994506752175
-0.00037339983215075977
-0.00027970540932326305
-0.0002549039444571609
-0.00024939250782024937
-0.00025765966277561676
-0.00027419397268635144
-0.0002190796063172357
-0.00018049954985885472
-0.00024388107118333775
-0.00026592681773098404
-0.00027143825436789566
-0.00027419397268635144
-0.00024388107118333775
-0.0002080567330434125
-0.00019427814145113364
-0.00016947667658503157
-0.00018049954985885472
-0.0001997895780880452
-0.00024388107118333775
-0.0003100183108262768
-0.0002962397192339978
-0.00027970540932326305
-0.0002962397192339978
-0.00027970540932326305
-0.0002989954375524536
-0.000370644113832304
-0.00037615555046921565
-0.00039268986037995033
-0.000447804226749066
-0.0005139414663920051
-0.0005828344243533996
-0.000629681635767148
-0.0006517273823147941
-0.0006627502555886173
-0.00065448310063325
-0.0006599945372701616
-0.0006462159456778825
-0.0006379487907225153
-0.0006655059739070732
-0.000668261692225529
-0.0007151089036392773
-0.0007895132982375835
-0.0008198261997405972
-0.0007922690165560394
-0.0007647118333714817
-0.0007233760585946446
-0.0007233760585946446
-0.0008005361715114068
-0.0008225819180590531
-0.0008143147631036856
-0.0007784904249637603
-0.0007729789883268486
-0.0007977804531929508
-0.0008611619745174342
-0.0008721848477912571
-0.0007619561150530257
-0.0006655059739070732
-0.0007233760585946446
-0.0008887191577019918
-0.0009052534676127264
-0.0008776962844281688
-0.0008694291294728014
-0.0008418719462882435
-0.0008170704814221414
-0.0008280933546959645
-0.0008666734111543456
-0.0008969863126573594
-0.0008721848477912571
-0.0008584062561989784
-0.0008528948195620666
-0.0009052534676127264
-0.000952100679026475
-0.0009493449607080192
-0.0009383220874341961
-0.0009135206225680943
-0.0008336047913328761
-0.0007674675516899373
-0.0007509332417792025
-0.0009135206225680943
-0.0010623294117647064
-0.0010044593270771348
-0.0009465892423895632
-0.0009107649042496381
-0.0008363605096513318
-0.0007867575799191276
-0.0008501391012436108
-0.0009135206225680943
-0.0008969863126573594
-0.000874940566109713
-0.0008418719462882435
-0.0008280933546959645
-0.0008556505378805224
-0.0009107649042496381
-0.0009217877775234612
-0.0008942305943389032
-0.0009052534676127264
-0.000976902143892577
-0.0010320165102616929
-0.0010182379186694142
-0.0010017036087586794
-0.0009024977492942707
-0.0009107649042496381
-0.0010678408484016179
-0.0010788637216754414
-0.001012726482032502
-0.0009603678339818424
-0.0009576121156633864
-0.0010182379186694142
-0.0010485508201724275
-0.001070596566720074
-0.0010375279468986046
-0.0009603678339818424
-0.000963123552300298
-0.0009493449607080192
-0.0007013303120469984
-0.0005029185931181816
-0.00040922417029068495
-0.0005718115510795765
-0.0008005361715114068
-0.001070596566720074
-0.0014646642862592512
-0.0016052059205004963
-0.001588671610589762
-0.001690633188372626
-0.001632763103685054
-0.0014646642862592512
-0.0013296340886549175
-0.0012690082856488905
-0.0012138939192797744
-0.0012249167925535982
-0.0011394895246814685
-0.0010237493553063252
-0.0010650851300831622
-0.0011450009613183801
-0.0011394895246814685
-0.00109264231326772
-0.0010788637216754414
-0.0010320165102616929
-0.0009961921721217675
-0.0010072150453955906
-0.0010761080033569854
-0.0010898865949492643
-0.0010044593270771348
-0.0009686349889372096
-0.0010816194399938968
-0.0011808252994583053
-0.0011532681162737474
-0.0011257109330891897
-0.0010953980315861755
-0.0010099707637140464
-0.0009824135805294888
-0.0010044593270771348
-0.0010347722285801487
-0.0010595736934462504
-0.0010375279468986046
-0.0009906807354848563
-0.0009989478904402233
-0.0009741464255741213
-0.0010072150453955906
-0.0010457951018539718
-0.0009465892423895632
-0.0009080091859311822
-0.0009961921721217675
-0.0010347722285801487
-0.0010292607919432368
-0.001026505073624781
-0.0009245434958419172
-0.0008501391012436108
-0.0009080091859311822
-0.0009383220874341961
-0.0008914748760204477
-0.0008887191577019918
-0.0008694291294728014
-0.0008336047913328761
-0.0008060476081483182
-0.0008391162279697878
-0.0008887191577019918
-0.0009052534676127264
-0.0008336047913328761
-0.0008088033264667742
-0.0008721848477912571
-0.0008832077210650803
-0.000899742030975815
-0.0008336047913328761
-0.0008832077210650803
-0.0010017036087586794
-0.0009934364538033119
-0.0009741464255741213
-0.0010457951018539718
-0.0011229552147707339
-0.0011505123979552916
-0.0011450009613183801
-0.0011505123979552916
-0.0011119323414969108
-0.0011394895246814685
-0.0012359396658274211
-0.0012772754406042577
-0.0012414511024643328
-0.0012194053559166863
-0.0012386953841458767
-0.0012524739757381555
-0.0012276725108720536
-0.0012524739757381555
-0.0012910540321965367
-0.001222161074235142
-0.001208382482642863
-0.0012717640039673465
-0.0012497182574196996
-0.0012607411306935232
-0.0013379012436102852
-0.0013489241168841083
-0.001233183947508965
-0.0012056267643244074
-0.0012690082856488905
-0.0013489241168841083
-0.0013351455252918294
-0.0012772754406042577
-0.0012690082856488905
-0.001263496849011979
-0.0012800311589227138
-0.001274519722285802
-0.0012827868772411696
-0.0012772754406042577
-0.001263496849011979
-0.0012442068207827886
-0.001233183947508965
-0.0012276725108720536
-0.0012800311589227138
-0.0013268783703364617
-0.001274519722285802
-0.001208382482642863
-0.0012497182574196996
-0.0012993211871519042
-0.0012965654688334484
-0.0012690082856488905
-0.0012414511024643328
-0.0012056267643244074
-0.0012359396658274211
-0.0012910540321965367
-0.0013130997787441834
-0.0012800311589227138
-0.0012442068207827886
-0.0012386953841458767
-0.0012028710460059518
-0.0012359396658274211
-0.0012855425955596252
-0.0012965654688334484
-0.0012442068207827886
-0.0011422452429999243
-0.0011918481727321284
-0.0012001153276874961
-0.0011725581445029378
-0.0011753138628213936
-0.0012414511024643328
-0.0012552296940566115
-0.0012717640039673465
-0.0012882983138780809
-0.0012855425955596252
-0.0012414511024643328
-0.0011780695811398495
-0.0012194053559166863
-0.0012469625391012442
-0.001274519722285802
-0.0013130997787441834
-0.0013186112153810948
-0.0012469625391012442
-0.0012111382009613188
-0.001263496849011979
-0.0013186112153810948
-0.0013186112153810948
-0.0012993211871519042
-0.0012938097505149923
-0.0012607411306935232
-0.0012359396658274211
-0.0012249167925535982
-0.001164290989547571
-0.0011036651865415433
-0.0010182379186694142
-0.0008611619745174342
-0.0006847960021362637
-0.0006407045090409712
-0.0008446276646066993
-0.0011725581445029378
-0.0015390686808575578
-0.0018532205691615172
-0.0019276249637598239
-0.0018559762874799726
-0.0017760604562447552
-0.0016300073853665984
-0.0014591528496223395
-0.001417817074845503
-0.0013847484550240335
-0.00135443555352102
-0.001362702708476387
-0.0013130997787441834
-0.0012442068207827886
-0.0012249167925535982
-0.0012386953841458767
-0.0012469625391012442
-0.0012386953841458767
-0.0012607411306935232
-0.0012497182574196996
-0.0012194053559166863
-0.001164290989547571
-0.0011532681162737474
-0.0011422452429999243
-0.0011753138628213936
-0.001233183947508965
-0.0012359396658274211
-0.0011835810177767614
-0.0011394895246814685
-0.0011725581445029378
-0.0011505123979552916
-0.0011229552147707339
-0.0011725581445029378
-0.0011890924544136726
-0.0011367338063630126
-0.0011284666514076451
-0.0011064209048599993
-0.001156023834592203
-0.0010871308766308087
-0.0010375279468986046
-0.001056817975127795
-0.0010843751583123526
-0.0010733522850385297
-0.001026505073624781
-0.0009686349889372096
-0.0009548563973449309
-0.001012726482032502
-0.001015482200350958
-0.0009934364538033119
-0.000963123552300298
-0.0009328106507972846
-0.0009162763408865498
-0.0008832077210650803
-0.0008584062561989784
-0.0008694291294728014
-0.0008969863126573594
-0.0008969863126573594
-0.0008639176928358897
-0.0008721848477912571
-0.0009245434958419172
-0.0009245434958419172
-0.0008859634393835361
-0.0008776962844281688
-0.0009080091859311822
-0.0009080091859311822
-0.0008694291294728014
-0.0009217877775234612
-0.0010072150453955906
-0.0009961921721217675
-0.0010099707637140464
-0.0010347722285801487
-0.0010375279468986046
-0.0010981537499046318
-0.0011284666514076451
-0.0011367338063630126
-0.0011257109330891897
-0.0011312223697261012
-0.001161535271229115
-0.0011698024261844818
-0.0011780695811398495
-0.001161535271229115
-0.001161535271229115
-0.0011780695811398495
-0.0012111382009613188
-0.0012359396658274211
-0.001208382482642863
-0.0011670467078660266
-0.0011339780880445568
-0.0012001153276874961
-0.0012524739757381555
-0.001274519722285802
-0.0012497182574196996
-0.0012276725108720536
-0.0012056267643244074
-0.0011780695811398495
-0.0012138939192797744
-0.0012028710460059518
-0.0011835810177767614
-0.001194603891050584
-0.0012194053559166863
-0.0012194053559166863
-0.0011918481727321284
-0.001158779552910659
-0.0011312223697261012
-0.0011725581445029378
-0.0011670467078660266
-0.001156023834592203
-0.0011312223697261012
-0.0011339780880445568
-0.0011725581445029378
-0.001186336736095217
-0.0011753138628213936
-0.001164290989547571
-0.0011725581445029378
-0.0011670467078660266
-0.0011394895246814685
-0.0011312223697261012
-0.001156023834592203
-0.0011753138628213936
-0.001164290989547571
-0.001164290989547571
-0.0011505123979552916
-0.0011229552147707339
-0.0011422452429999243
-0.0011146880598153664
-0.0011064209048599993
-0.0011284666514076451
-0.0011532681162737474
-0.001164290989547571
-0.001156023834592203
-0.0011312223697261012
-0.0010953980315861755
-0.00104028366521706
-0.0009989478904402233
-0.001015482200350958
-0.0010898865949492643
-0.0011422452429999243
-0.0011229552147707339
-0.0010981537499046318
-0.0010733522850385297
-0.0010540622568093393
-0.00109264231326772
-0.0010953980315861755
-0.00109264231326772
-0.0011725581445029378
-0.0012056267643244074
-0.0011119323414969108
-0.00109264231326772
-0.0011367338063630126
-0.0011670467078660266
-0.001164290989547571
-0.0011670467078660266
-0.0011698024261844818
-0.001161535271229115
-0.0011450009613183801
-0.0011670467078660266
-0.001156023834592203
-0.0011367338063630126
-0.0011009094682230872
-0.001015482200350958
-0.0009217877775234612
-0.0008253376363775088
-0.0007040860303654542
-0.0006103916075379574
-0.0005442543678950186
-0.0006434602273594267
-0.000976902143892577
-0.001393015609979401
-0.0016713431601434352
-0.0016989003433279934
-0.0016162287937743196
-0.0015556029907682917
-0.001351679835202564
-0.0012772754406042577
-0.001233183947508965
-0.0012056267643244074
-0.001161535271229115
-0.0011257109330891897
-0.0010981537499046318
-0.0011174437781338222
-0.001147756679636836
-0.0011670467078660266
-0.0011339780880445568
-0.0011009094682230872
-0.001120199496452278
-0.0011146880598153664
-0.0010650851300831622
-0.0010595736934462504
-0.0010871308766308087
-0.0010981537499046318
-0.0010843751583123526
-0.0010595736934462504
-0.0010540622568093393
-0.0010623294117647064
-0.0010733522850385297
-0.0010843751583123526
-0.0010540622568093393
-0.0010072150453955906
-0.0010209936369878696
-0.0010375279468986046
-0.0010237493553063252
-0.0010044593270771348
-0.0009879250171664002
-0.0009493449607080192
-0.0009438335240711076
-0.0009686349889372096
-0.0009465892423895632
-0.0009300549324788287
-0.0009107649042496381
-0.0008776962844281688
-0.0008473833829251552
-0.0008336047913328761
-0.0008005361715114068
-0.0007895132982375835
-0.0007619561150530257
-0.0006737731288624405
-0.000577322987716488
-0.0005580329594872974
-0.00054976580453193
-0.0005194529030289164
-0.0004560713817044334
-0.00036237695887693665
-0.0002989954375524536
-0.00029072828259708617
-0.00024939250782024937
-0.00018876670481422206
-0.00020530101472495681
-0.0002466367895017936
-0.00016672095826657574
-8.956084534981374e-05
-7.57822537575348e-05
-8.129369039444639e-05
-9.78280003051811e-05
-0.00010058371862363688
-9.507228198672531e-05
-7.85379720759906e-05
-4.5469352254521147e-05
-6.200366216525588e-05
-0.00010333943694209268
-0.00013089662012665053
-0.00013089662012665053
-0.0001171180285343716
-0.00010058371862363688
-7.57822537575348e-05
-8.680512703135793e-05
-0.00012538518348973897
-6.751509880216745e-05
-8.129369039444639e-05
-0.0001226294651712832
-0.00010333943694209268
-9.231656366826955e-05
-0.00013089662012665053
-9.507228198672531e-05
-8.956084534981374e-05
-0.0001171180285343716
-0.00010609515526054846
-6.475938048371164e-05
-8.404940871290214e-05
-0.00010885087357900426
-6.751509880216745e-05
-4.8225070572976926e-05
-2.066788738841907e-05
4.82250705729756e-05
5.649222552834297e-05
-2.342360570687485e-05
-6.200366216525588e-05
-3.4446478980697995e-05
2.6179324025329308e-05
3.9957915617608246e-05
1.7912169069961946e-05
8.956084534981241e-05
0.00013365233844510492
0.00014743093003738393
0.00017498811322194178
0.00014467521171892812
0.00010058371862363556
0.00011711802853437029
0.0001556980849927513
0.00018049954985885336
0.00018601098649576498
0.00019152242313267648
0.00017774383154039756
0.00019427814145113231
0.000210812451361867
0.00020530101472495543
0.00020254529640649968
0.0002218353246356902
0.0002576596627756154
0.00029623971923399637
0.0002989954375524522
0.00030450687418936376
0.0003375754940108332
0.0003375754940108332
0.0003485983672846564
0.00037615555046921414
0.00036788839551384685
0.000340331212329289
0.00038717842374303736
0.0003982012970168605
0.0004643385366597993
0.0005387429312581057
0.0005580329594872961
0.0005800787060349425
0.0006103916075379561
0.0005883458609903097
0.0005745672693980309
0.0006103916075379561
0.000637948790722514
0.0006930631570916297
0.0006985745937285414
0.0007040860303654528
0.0006903074387731741
0.0007426660868238338
0.0007481775234607456
0.0007840018616006707
0.0008832077210650791
0.0009162763408865484
0.0008859634393835348
0.000855650537880521
0.0008666734111543443
0.0009245434958419158
0.000985169298847943
0.0009906807354848547
0.0010237493553063243
0.0010761080033569843
0.0010705965667200726
0.0010430393835355147
0.001103665186541542
0.001318611215381093
0.0015390686808575565
0.001833930540932325
0.002115013809414816
0.002145326710917829
0.001806373357747768
0.001335145525291828
0.0010044593270771337
0.0009300549324788276
0.0009961921721217662
0.0010623294117647053
0.0011174437781338207
0.0012304282291905084
0.0012772754406042562
0.0012772754406042562
0.001335145525291828
0.0014398628213931478
0.0014563971313038828
0.0014040384832532226
0.001376481300068665
0.0014398628213931478
0.0014756871595330732
0.0014674200045777057
0.0014729314412146172
0.0015060000610360867
0.001514267215991454
0.001530801525902189
0.0015941830472266717
0.0016685874418249785
0.001630007385366597
0.0015748930189974813
0.0015693815823605698
0.0016410302586404204
0.001630007385366597
0.0015363129625391005
0.0015197786526283655
0.001514267215991454
0.0015225343709468217
0.0015859158922713046
0.0016052059205004952
0.0015886716105897604
0.001602450202182039
0.0015969387655451277
0.0015280458075837332
0.0015390686808575565
0.0015390686808575565
0.0015390686808575565
0.001630007385366597
0.0016134730754558623
0.0015859158922713046
0.001671343160143434
0.0017044117799649037
0.0016107173571374067
0.0015556029907682909
0.0015418243991760121
0.0015390686808575565
0.001530801525902189
0.0015721373006790259
0.001630007385366597
0.0016327631036850527
0.001530801525902189
0.0014839543144884403
0.0015390686808575565
0.0015721373006790259
0.0015418243991760121
0.0015776487373159373
0.001607961638818951
0.0015060000610360867
0.0014371071030746922
0.0014288399481193247
0.0014288399481193247
0.0014260842298008686
0.0014095499198901345
0.0013875041733424878
0.001293809750514991
0.001271764003967345
0.001244206820782787
0.0011946038910505827
0.0011560238345922017
0.0011560238345922017
0.0011422452429999228
0.0010540622568093376
0.0009355663691157388
0.0008198261997405958
0.000687551720454718
0.0005966130159456772
0.0005304757763027383
0.00041749132524605104
0.00038993414206149314
0.00042575848020141833
0.0004340256351567857
0.0004450485084306089
0.0004781171282520784
0.00048362856488898997
0.0004974071564812689
0.0005304757763027383
0.0005552772411688404
0.0005773229877164866
0.0005883458609903097
0.0005249643396658268
0.0005277200579842825
0.000585590142671854
0.0005911015793087656
0.0005800787060349425
0.000560788677805752
0.0005414986495765614
0.0005800787060349425
0.0006324373540856024
0.0006544831006332488
0.0006682616922255276
0.000701330312046997
0.0007481775234607456
0.0008391162279697863
0.0009162763408865484
0.0010154822003509568
0.0010953980315861747
0.0009383220874341949
0.0008694291294728002
0.0008473833829251538
0.0007922690165560381
0.0007977804531929496
0.0008308490730144192
0.0007867575799191265
0.0007068417486839086
0.0006021244525825888
0.000599368734264133
0.0005800787060349425
0.0005635443961242077
0.000585590142671854
0.0006159030441748677
0.0006544831006332488
0.0006820402838178067
0.0006627502555886161
0.0006159030441748677
0.0006407045090409697
0.0006710174105439835
0.000560788677805752
0.00037891126878767
0.0002879725642786291
0.00037891126878767
0.0004726056916151668
0.0005277200579842825
0.0005525215228503846
0.0004478042267490647
0.0003623769588769353
0.000340331212329289
0.0003596212405584795
0.0003596212405584795
0.0003430869306477448
0.000315529747463187
0.0002769496910048059
0.0002576596627756154
0.0002549039444571596
0.00023561391622796914
0.00025214822613870384
0.00024663678950179223
0.00025214822613870384
0.00029623971923399637
0.00030450687418936376
0.00024388107118333642
0.00020805673304341124
0.00017774383154039756
0.00014191949340047234
0.00019978957808804387
0.0002493925078202481
0.00019427814145113231
0.00020805673304341124
0.0002576596627756154
0.00037615555046921414
0.0004726056916151668
0.0005056743114366363
0.0006599945372701603
0.000908009185931181
0.000998947890440222
0.0007812461432822147
0.00043126991683832994
-1.377859159228559e-06
-0.0003485983672846577
-0.00036788839551384826
-0.00030175115587090934
-0.00023010247959105888
-0.00015569808499275262
-9.507228198672531e-05
-3.995791561760957e-05
3.720219729915245e-05
0.00011711802853437029
0.00014743093003738393
9.782800030517979e-05
4.133577477683014e-06
2.066788738841773e-05
8.129369039444505e-05
0.00013640805676356078
0.00015294236667429551
0.00016672095826657444
0.00013365233844510492
8.129369039444505e-05
5.373650720988717e-05
5.9247943846798756e-05
3.720219729915245e-05
9.64501411459459e-06
6.751509880216611e-05
8.404940871290084e-05
-5.9247943846800084e-05
-0.00013089662012665053
-5.9247943846800084e-05
1.2400732433050376e-05
7.02708171206219e-05
0.00011711802853437029
0.00011987374685282605
0.00010885087357900291
0.00018876670481422076
0.00019427814145113231
0.00013089662012664922
7.02708171206219e-05
8.129369039444505e-05
0.00015294236667429551
0.00017498811322194178
8.129369039444505e-05
6.8892957961388014e-06
6.751509880216611e-05
0.00014467521171892812
0.00025214822613870384
0.0003623769588769353
0.000365132677195391
0.00016396523994811866
5.373650720988717e-05
0.00012814090180819342
0.00012814090180819342
0.00016396523994811866
0.000263171099412527
0.00027970540932326175
0.0002769496910048059
0.0002135681696803228
0.00018601098649576498
0.00023285819790951333
0.00019152242313267648
0.00014743093003738393
0.00018876670481422076
0.00018601098649576498
0.00011987374685282605
0.00013916377508201656
0.0001556980849927513
0.00013916377508201656
0.00012814090180819342
0.00011436231021591448
0.00013089662012664922
4.271363393606403e-05
-4.5469352254521147e-05
-4.2713633936065354e-05
-3.995791561760957e-05
-2.8935042343786426e-05
-2.6179324025330647e-05
-8.404940871290214e-05
-8.129369039444639e-05
-0.0001336523384451063
-0.0001612095216296642
-0.00020530101472495681
-0.00018325526817731047
-0.0001364080567635621
-9.507228198672531e-05
-0.00010333943694209268
-0.0001336523384451063
-0.00018049954985885472
-0.0001612095216296642
-0.00015569808499275262
-0.00018049954985885472
-0.00015294236667429682
-7.027081712062322e-05
-8.680512703135793e-05
-0.0001391637750820179
-0.00014467521171892948
-0.0002108124513618684
-0.0002686825360494398
-0.00023836963454642628
-0.0001612095216296642
-0.00014743093003738526
-0.00024112535286488197
-0.0003045068741893651
-0.0003127740291447324
-0.0002631710994125282
-0.00018049954985885472
-0.00011436231021591582
-0.00018325526817731047
-0.0001777438315403989
-0.00016396523994811996
-0.00020254529640650095
-0.00018325526817731047
-0.00018049954985885472
-0.0001777438315403989
-0.00017223239490348733
-0.000150186648355841
-0.00012814090180819475
-0.0001584538033112084
-0.00021356816968032413
-0.00023010247959105888
-0.00023010247959105888
-0.00019152242313267784
-0.00016672095826657574
-0.00021356816968032413
-0.0002852168459601746
-0.00025765966277561676
-0.0002190796063172357
-0.00018049954985885472
-0.00022459104295414727
-0.00025765966277561676
-0.00023561391622797047
-0.00023010247959105888
-0.00023561391622797047
-0.0002190796063172357
-0.00015569808499275262
-0.00010333943694209268
-6.200366216525588e-05
-0.00011436231021591582
-0.00018325526817731047
-0.00024388107118333775
-0.00029072828259708617
-0.00023010247959105888
-0.00019703385976958942
-0.00023836963454642628
-0.00024112535286488197
-0.00023561391622797047
-0.00023561391622797047
-0.00024112535286488197
-0.00023285819790951464
-0.00024388107118333775
-0.00027970540932326305
-0.0003403312123292903
-0.00031828546578164407
-0.0002521482261387052
-0.00020254529640650095
-0.0002466367895017936
-0.0003320640573739229
-0.00028797256427863044
-0.00027694969100480727
-0.00022459104295414727
-0.00011160659189746003
2.6179324025329308e-05
0.0002218353246356902
0.00042851419851987416
0.0005029185931181804
0.0003348197756923775
-3.995791561760957e-05
-0.0004781171282520797
-0.0008060476081483182
-0.0008584062561989784
-0.000745421805142291
-0.0006407045090409712
-0.0005938572976272227
-0.00054976580453193
