2.066788738841773e-05
3.720219729915245e-05
5.098078889143139e-05
5.649222552834297e-05
6.200366216525454e-05
5.649222552834297e-05
5.373650720988717e-05
4.271363393606403e-05
3.720219729915245e-05
3.169076066224089e-05
2.3423605706873515e-05
6.8892957961388014e-06
-4.133577477684346e-06
-1.5156450751507488e-05
-2.6179324025330647e-05
-4.2713633936065354e-05
-5.3736507209888505e-05
-5.9247943846800084e-05
-6.200366216525588e-05
-6.200366216525588e-05
-6.475938048371164e-05
-6.751509880216745e-05
-7.57822537575348e-05
-7.85379720759906e-05
-7.85379720759906e-05
-8.404940871290214e-05
-9.507228198672531e-05
-0.00010885087357900426
-0.0001226294651712832
-0.00010885087357900426
-9.64501411459592e-06
0.00020254529640649968
0.0005277200579842825
0.0009410778057526506
0.0013516798352025624
0.0016465416952773319
0.0016906331883726243
0.0007343989318684667
1.5156450751506162e-05
-0.0004698499732967123
-0.00046433853665980087
-0.0003513540856031135
-0.00027970540932326305
-0.00023561391622797047
-0.00020530101472495681
-0.00017498811322194308
-0.00016396523994811996
-0.00016396523994811996
-0.0001612095216296642
-0.00015569808499275262
-0.000150186648355841
-0.00014467521171892948
-0.00014467521171892948
-0.0001391637750820179
-0.00012814090180819475
-0.0001226294651712832
-0.0001198737468528274
-0.0001171180285343716
-0.00011436231021591582
-0.00010609515526054846
-9.78280003051811e-05
-9.78280003051811e-05
-9.507228198672531e-05
-8.956084534981374e-05
-8.404940871290214e-05
-7.57822537575348e-05
-7.027081712062322e-05
-7.302653543907902e-05
-7.85379720759906e-05
-7.302653543907902e-05
-6.475938048371164e-05
-6.475938048371164e-05
-6.200366216525588e-05
-6.475938048371164e-05
-6.475938048371164e-05
-6.200366216525588e-05
-5.3736507209888505e-05
-4.8225070572976926e-05
-4.5469352254521147e-05
-3.995791561760957e-05
-2.8935042343786426e-05
-1.5156450751507488e-05
-9.64501411459592e-06
-4.133577477684346e-06
-1.377859159228559e-06
4.133577477683014e-06
9.64501411459459e-06
9.64501411459459e-06
9.64501411459459e-06
1.2400732433050376e-05
1.5156450751506162e-05
2.066788738841773e-05
1.5156450751506162e-05
6.8892957961388014e-06
-4.133577477684346e-06
-1.7912169069963278e-05
-2.6179324025330647e-05
-3.720219729915378e-05
-5.098078889143272e-05
-5.9247943846800084e-05
-6.200366216525588e-05
-6.475938048371164e-05
-6.751509880216745e-05
-7.302653543907902e-05
-7.85379720759906e-05
-8.129369039444639e-05
-7.85379720759906e-05
-7.302653543907902e-05
-7.027081712062322e-05
-6.475938048371164e-05
-5.3736507209888505e-05
-3.995791561760957e-05
-3.720219729915378e-05
-3.4446478980697995e-05
-2.8935042343786426e-05
-1.5156450751507488e-05
1.3778591592272275e-06
1.5156450751506162e-05
2.8935042343785094e-05
3.720219729915245e-05
3.9957915617608246e-05
4.546935225451981e-05
4.546935225451981e-05
3.720219729915245e-05
2.6179324025329308e-05
1.7912169069961946e-05
9.64501411459459e-06
-4.133577477684346e-06
-1.7912169069963278e-05
-2.6179324025330647e-05
-3.720219729915378e-05
-5.098078889143272e-05
-5.6492225528344285e-05
-6.475938048371164e-05
-7.302653543907902e-05
-7.57822537575348e-05
-7.57822537575348e-05
-7.57822537575348e-05
-7.85379720759906e-05
-8.404940871290214e-05
-8.956084534981374e-05
-9.231656366826955e-05
-9.78280003051811e-05
-0.00011436231021591582
-0.0001364080567635621
-0.00013089662012665053
-2.6179324025330647e-05
0.00019978957808804387
0.0005442543678950173
0.0009769021438925758
0.0013985270466163114
0.0017044117799649037
0.001748503273060196
0.0014040384832532226
0.0007840018616006707
5.9247943846798756e-05
-0.00045055994506752175
-0.0004560713817044334
-0.0003430869306477461
-0.00027419397268635144
-0.00023285819790951464
-0.0002080567330434125
-0.00018325526817731047
-0.00016396523994811996
-0.0001612095216296642
-0.00016396523994811996
-0.00016396523994811996
-0.00015569808499275262
-0.00014743093003738526
-0.00014191949340047367
-0.0001391637750820179
-0.0001364080567635621
-0.00013089662012665053
-0.0001171180285343716
-0.0001171180285343716
-0.0001171180285343716
-0.00010885087357900426
-0.00010333943694209268
-0.00010058371862363688
-0.00010058371862363688
-0.00010058371862363688
-9.78280003051811e-05
-9.507228198672531e-05
-8.956084534981374e-05
-8.956084534981374e-05
-8.956084534981374e-05
-8.680512703135793e-05
-8.129369039444639e-05
-7.85379720759906e-05
-7.85379720759906e-05
-7.85379720759906e-05
-7.85379720759906e-05
-7.57822537575348e-05
-6.751509880216745e-05
-6.200366216525588e-05
-5.9247943846800084e-05
-5.9247943846800084e-05
-5.3736507209888505e-05
-4.5469352254521147e-05
-3.995791561760957e-05
-4.2713633936065354e-05
-4.5469352254521147e-05
-4.2713633936065354e-05
-4.2713633936065354e-05
-3.995791561760957e-05
-3.720219729915378e-05
-3.4446478980697995e-05
-2.6179324025330647e-05
-1.7912169069963278e-05
-1.7912169069963278e-05
-2.066788738841907e-05
-3.169076066224221e-05
-4.5469352254521147e-05
-5.098078889143272e-05
-5.6492225528344285e-05
-6.751509880216745e-05
-7.85379720759906e-05
-8.680512703135793e-05
-8.680512703135793e-05
-8.680512703135793e-05
-8.956084534981374e-05
-9.231656366826955e-05
-9.507228198672531e-05
-9.231656366826955e-05
-8.404940871290214e-05
-7.85379720759906e-05
-7.57822537575348e-05
-6.751509880216745e-05
-5.6492225528344285e-05
-4.5469352254521147e-05
-3.720219729915378e-05
-2.8935042343786426e-05
-1.7912169069963278e-05
-1.377859159228559e-06
2.066788738841773e-05
3.444647898069667e-05
3.720219729915245e-05
3.9957915617608246e-05
4.271363393606403e-05
4.546935225451981e-05
4.271363393606403e-05
2.8935042343785094e-05
9.64501411459459e-06
1.3778591592272275e-06
-4.133577477684346e-06
-2.066788738841907e-05
-3.995791561760957e-05
-5.3736507209888505e-05
-5.9247943846800084e-05
-5.9247943846800084e-05
-6.200366216525588e-05
-6.475938048371164e-05
-7.027081712062322e-05
-7.57822537575348e-05
-7.57822537575348e-05
-7.85379720759906e-05
-8.404940871290214e-05
-9.507228198672531e-05
-0.00010058371862363688
-0.00011160659189746003
-0.00013089662012665053
-0.0001171180285343716
-1.377859159228559e-06
0.00024388107118333642
0.0006214144808117793
0.0010705965667200726
0.001489465751125352
0.0017567704280155635
0.0017374803997863729
0.0013406569619287395
0.0007123531853208202
-1.5156450751507488e-05
-0.00046433853665980087
-0.00043953707179369863
-0.0003320640573739229
-0.0002631710994125282
-0.00022734676127260308
-0.00020530101472495681
-0.00018601098649576628
-0.00017223239490348733
-0.00016672095826657574
-0.00016396523994811996
-0.0001612095216296642
-0.0001612095216296642
-0.00015569808499275262
-0.00014467521171892948
-0.0001391637750820179
-0.0001364080567635621
-0.0001336523384451063
-0.00013089662012665053
-0.00012538518348973897
-0.0001171180285343716
-0.00011436231021591582
-0.00011436231021591582
-0.00010885087357900426
-0.00010333943694209268
-9.507228198672531e-05
-9.507228198672531e-05
-9.78280003051811e-05
-9.507228198672531e-05
-9.231656366826955e-05
-8.680512703135793e-05
-8.404940871290214e-05
-8.404940871290214e-05
-7.85379720759906e-05
-7.85379720759906e-05
-7.302653543907902e-05
-7.302653543907902e-05
-7.57822537575348e-05
-7.57822537575348e-05
-5.6492225528344285e-05
-5.098078889143272e-05
-4.8225070572976926e-05
-4.2713633936065354e-05
-3.995791561760957e-05
-3.720219729915378e-05
-3.720219729915378e-05
-3.995791561760957e-05
-4.8225070572976926e-05
-5.3736507209888505e-05
-5.098078889143272e-05
-4.8225070572976926e-05
-4.5469352254521147e-05
-4.2713633936065354e-05
-4.2713633936065354e-05
-3.720219729915378e-05
-3.169076066224221e-05
-3.720219729915378e-05
-5.098078889143272e-05
-6.200366216525588e-05
-6.751509880216745e-05
-7.302653543907902e-05
-7.85379720759906e-05
-8.680512703135793e-05
-9.507228198672531e-05
-9.78280003051811e-05
-9.78280003051811e-05
-0.00010058371862363688
-0.00010058371862363688
-0.00010333943694209268
-0.00010058371862363688
-8.956084534981374e-05
-7.85379720759906e-05
-7.027081712062322e-05
-6.475938048371164e-05
-5.9247943846800084e-05
-5.098078889143272e-05
-3.995791561760957e-05
-2.342360570687485e-05
-9.64501411459592e-06
6.8892957961388014e-06
2.3423605706873515e-05
3.169076066224089e-05
3.720219729915245e-05
3.720219729915245e-05
3.169076066224089e-05
2.6179324025329308e-05
2.3423605706873515e-05
1.7912169069961946e-05
4.133577477683014e-06
-9.64501411459592e-06
-1.7912169069963278e-05
-2.6179324025330647e-05
-3.995791561760957e-05
-5.6492225528344285e-05
-6.475938048371164e-05
-7.027081712062322e-05
-7.027081712062322e-05
-7.027081712062322e-05
-7.57822537575348e-05
-8.404940871290214e-05
-8.680512703135793e-05
-8.680512703135793e-05
-9.231656366826955e-05
-0.00010058371862363688
-0.00011160659189746003
-0.00012814090180819475
-0.00014467521171892948
5.649222552834297e-05
0.000340331212329289
0.0007509332417792012
0.0012083824826428621
0.0016052059205004952
0.0018118847943846788
0.001687877470054169
0.0011890924544136717
0.0005166971847104594
-0.00019427814145113364
-0.00048638428320744705
-0.00040646845197222917
-0.00031828546578164407
-0.00026592681773098404
-0.00023285819790951464
-0.00020254529640650095
-0.00018325526817731047
-0.0001777438315403989
-0.0001777438315403989
-0.00017498811322194308
-0.00016947667658503157
-0.0001612095216296642
-0.0001612095216296642
-0.00015569808499275262
-0.00014743093003738526
-0.0001391637750820179
-0.0001336523384451063
-0.0001336523384451063
-0.00012814090180819475
-0.00012538518348973897
-0.0001171180285343716
-0.00011436231021591582
-0.00011160659189746003
-0.00011436231021591582
-0.00010609515526054846
-9.78280003051811e-05
-9.507228198672531e-05
-9.231656366826955e-05
-9.507228198672531e-05
-9.231656366826955e-05
-8.404940871290214e-05
-8.404940871290214e-05
-8.680512703135793e-05
-9.231656366826955e-05
-9.231656366826955e-05
-8.956084534981374e-05
-8.680512703135793e-05
-8.404940871290214e-05
-8.404940871290214e-05
-8.404940871290214e-05
-7.302653543907902e-05
-6.475938048371164e-05
-5.9247943846800084e-05
-5.9247943846800084e-05
-5.9247943846800084e-05
-5.6492225528344285e-05
-5.6492225528344285e-05
-5.9247943846800084e-05
-6.475938048371164e-05
-6.751509880216745e-05
-6.751509880216745e-05
-6.475938048371164e-05
-5.9247943846800084e-05
-5.9247943846800084e-05
-5.6492225528344285e-05
-5.6492225528344285e-05
-5.9247943846800084e-05
-6.475938048371164e-05
-8.404940871290214e-05
-9.231656366826955e-05
-9.231656366826955e-05
-9.507228198672531e-05
-0.00010333943694209268
-0.00011160659189746003
-0.00011436231021591582
-0.00011436231021591582
-0.00011160659189746003
-0.00011436231021591582
-0.00011436231021591582
-0.00010609515526054846
-9.231656366826955e-05
-7.57822537575348e-05
-6.751509880216745e-05
-6.200366216525588e-05
-5.6492225528344285e-05
-4.5469352254521147e-05
-2.342360570687485e-05
-6.889295796140132e-06
6.8892957961388014e-06
1.2400732433050376e-05
1.5156450751506162e-05
2.3423605706873515e-05
2.8935042343785094e-05
2.6179324025329308e-05
1.2400732433050376e-05
4.133577477683014e-06
-1.377859159228559e-06
-9.64501411459592e-06
-2.066788738841907e-05
-3.169076066224221e-05
-4.8225070572976926e-05
-6.200366216525588e-05
-7.302653543907902e-05
-7.85379720759906e-05
-8.129369039444639e-05
-8.680512703135793e-05
-8.956084534981374e-05
-9.507228198672531e-05
-9.78280003051811e-05
-0.00010609515526054846
-0.00010885087357900426
-0.00011160659189746003
-0.0001198737468528274
-0.0001336523384451063
-0.000150186648355841
-0.00014191949340047367
-4.5469352254521147e-05
0.00018049954985885336
0.0005414986495765614
0.0009631235523002968
0.0013571912718394743
0.0016410302586404204
0.0016823660334172573
0.001376481300068665
0.0007922690165560381
8.956084534981241e-05
-0.00045331566338597764
-0.0004918957198443586
-0.0003871784237430386
-0.00031828546578164407
-0.00027694969100480727
-0.00024939250782024937
-0.0002190796063172357
-0.00019703385976958942
-0.00019427814145113364
-0.00019703385976958942
-0.00019152242313267784
-0.00017498811322194308
-0.00017223239490348733
-0.00017223239490348733
-0.00017223239490348733
-0.00016672095826657574
-0.0001584538033112084
-0.00015569808499275262
-0.00015294236667429682
-0.000150186648355841
-0.00014743093003738526
-0.00014191949340047367
-0.0001391637750820179
-0.0001364080567635621
-0.0001364080567635621
-0.0001364080567635621
-0.00013089662012665053
-0.00012814090180819475
-0.00013089662012665053
-0.0001364080567635621
-0.0001391637750820179
-0.0001364080567635621
-0.00013089662012665053
-0.00013089662012665053
-0.0001391637750820179
-0.00014191949340047367
-0.0001391637750820179
-0.0001364080567635621
-0.00012814090180819475
-0.00012538518348973897
-0.0001198737468528274
-0.00011436231021591582
-0.00010333943694209268
-0.00010058371862363688
-0.00010333943694209268
-0.00010885087357900426
-0.00011160659189746003
-0.00011160659189746003
-0.00011436231021591582
-0.00011160659189746003
-0.00011160659189746003
-0.00011436231021591582
-0.00010885087357900426
-0.00010333943694209268
-0.00010333943694209268
-0.00010885087357900426
-0.00011160659189746003
-0.00010609515526054846
-0.00010058371862363688
-0.00010333943694209268
-0.00010885087357900426
-0.00011436231021591582
-0.00011160659189746003
-0.00010609515526054846
-0.00010885087357900426
-0.0001171180285343716
-0.00012814090180819475
-0.00012814090180819475
-0.0001226294651712832
-0.00011436231021591582
-0.00010885087357900426
-0.00010333943694209268
-9.507228198672531e-05
-8.680512703135793e-05
-8.404940871290214e-05
-7.85379720759906e-05
-6.200366216525588e-05
-4.2713633936065354e-05
-3.169076066224221e-05
-1.7912169069963278e-05
-1.240073243305171e-05
-9.64501411459592e-06
-1.240073243305171e-05
-1.7912169069963278e-05
-2.6179324025330647e-05
-3.169076066224221e-05
-3.995791561760957e-05
-4.8225070572976926e-05
-5.3736507209888505e-05
-6.475938048371164e-05
-8.404940871290214e-05
-9.78280003051811e-05
-0.00010058371862363688
-0.00010058371862363688
-0.00010333943694209268
-0.00010609515526054846
-0.00011160659189746003
-0.0001171180285343716
-0.0001171180285343716
-0.0001198737468528274
-0.00012538518348973897
-0.0001391637750820179
-0.00014467521171892948
-0.00014743093003738526
-0.00014467521171892948
-7.85379720759906e-05
9.782800030517979e-05
0.00041197988860913943
0.0008143147631036844
0.0012111382009613175
0.0015197786526283655
0.001618984512092774
0.0014040384832532226
0.0008694291294728002
0.000210812451361867
-0.0003871784237430386
-0.0005277200579842838
-0.0004312699168383313
-0.0003458426489662019
-0.00029348400091554195
-0.0002604153810940725
-0.00023010247959105888
-0.0002108124513618684
-0.00020254529640650095
-0.00019703385976958942
-0.00019152242313267784
-0.00018876670481422206
-0.00018876670481422206
-0.00018601098649576628
-0.00017498811322194308
-0.00016947667658503157
-0.00016396523994811996
-0.0001612095216296642
-0.0001612095216296642
-0.00015569808499275262
-0.00015294236667429682
-0.00015294236667429682
-0.00015294236667429682
-0.00015294236667429682
-0.000150186648355841
-0.00014467521171892948
-0.00014191949340047367
-0.00014191949340047367
-0.00014467521171892948
-0.00014191949340047367
-0.0001391637750820179
-0.0001391637750820179
-0.00014743093003738526
-0.00014743093003738526
-0.00014743093003738526
-0.00014743093003738526
-0.00014743093003738526
-0.000150186648355841
-0.000150186648355841
-0.00014191949340047367
-0.0001336523384451063
-0.00012538518348973897
-0.00012538518348973897
-0.0001198737468528274
-0.0001171180285343716
-0.00011436231021591582
-0.0001198737468528274
-0.00013089662012665053
-0.0001364080567635621
-0.00013089662012665053
-0.00012814090180819475
-0.0001226294651712832
-0.0001171180285343716
-0.0001171180285343716
-0.00011160659189746003
-0.00010609515526054846
-0.00010333943694209268
-0.00010333943694209268
-0.00010885087357900426
-0.00010885087357900426
-0.00010058371862363688
-0.00010058371862363688
-0.00010609515526054846
-0.00010885087357900426
-0.00010885087357900426
-0.00010885087357900426
-0.00010885087357900426
-0.00010609515526054846
-0.00010885087357900426
-0.00010333943694209268
-9.507228198672531e-05
-8.680512703135793e-05
-7.85379720759906e-05
-7.302653543907902e-05
-7.302653543907902e-05
-6.475938048371164e-05
-4.8225070572976926e-05
-3.169076066224221e-05
-2.342360570687485e-05
-1.7912169069963278e-05
-9.64501411459592e-06
1.3778591592272275e-06
6.8892957961388014e-06
4.133577477683014e-06
-1.377859159228559e-06
-9.64501411459592e-06
-9.64501411459592e-06
-1.240073243305171e-05
-2.6179324025330647e-05
-3.720219729915378e-05
-4.2713633936065354e-05
-5.3736507209888505e-05
-7.027081712062322e-05
-7.85379720759906e-05
-8.404940871290214e-05
-8.680512703135793e-05
-8.956084534981374e-05
-8.956084534981374e-05
-8.956084534981374e-05
-9.507228198672531e-05
-0.00010058371862363688
-0.00010609515526054846
-0.00011436231021591582
-0.00012538518348973897
-0.00013089662012665053
-8.680512703135793e-05
5.649222552834297e-05
0.000315529747463187
0.000687551720454718
0.0010926423132677188
0.0014591528496223384
0.001660320286869611
0.0015721373006790259
0.0011312223697260999
0.0004863842832074457
-0.00020254529640650095
-0.0005029185931181816
-0.00043402563515678713
-0.0003348197756923787
-0.0002686825360494398
-0.00023836963454642628
-0.00020530101472495681
-0.00018325526817731047
-0.00017498811322194308
-0.00017498811322194308
-0.00017223239490348733
-0.0001612095216296642
-0.000150186648355841
-0.00014743093003738526
-0.00014467521171892948
-0.00014191949340047367
-0.0001336523384451063
-0.00012538518348973897
-0.00012538518348973897
-0.00012814090180819475
-0.00012538518348973897
-0.0001198737468528274
-0.00011436231021591582
-0.00011160659189746003
-0.00011160659189746003
-0.00010885087357900426
-0.00010609515526054846
-0.00010333943694209268
-9.78280003051811e-05
-9.507228198672531e-05
-0.00010058371862363688
-0.00010609515526054846
-0.00010333943694209268
-9.78280003051811e-05
-0.00010058371862363688
-0.00010609515526054846
-0.00010885087357900426
-0.00010609515526054846
-0.00010333943694209268
-0.00010609515526054846
-0.00010609515526054846
-0.00010609515526054846
-9.231656366826955e-05
-8.680512703135793e-05
-8.680512703135793e-05
-8.680512703135793e-05
-8.956084534981374e-05
-8.956084534981374e-05
-8.404940871290214e-05
-7.57822537575348e-05
-7.302653543907902e-05
-6.751509880216745e-05
-6.475938048371164e-05
-5.3736507209888505e-05
-4.8225070572976926e-05
-5.6492225528344285e-05
-6.200366216525588e-05
-6.200366216525588e-05
-6.751509880216745e-05
-7.57822537575348e-05
-8.404940871290214e-05
-8.680512703135793e-05
-8.680512703135793e-05
-8.129369039444639e-05
-8.129369039444639e-05
-8.680512703135793e-05
-9.231656366826955e-05
-9.231656366826955e-05
-8.404940871290214e-05
-7.85379720759906e-05
-7.57822537575348e-05
-6.751509880216745e-05
-5.3736507209888505e-05
-3.995791561760957e-05
-3.169076066224221e-05
-3.169076066224221e-05
-2.8935042343786426e-05
-1.5156450751507488e-05
6.8892957961388014e-06
2.3423605706873515e-05
3.169076066224089e-05
3.720219729915245e-05
3.9957915617608246e-05
4.546935225451981e-05
4.546935225451981e-05
3.444647898069667e-05
2.3423605706873515e-05
1.5156450751506162e-05
9.64501411459459e-06
1.3778591592272275e-06
-9.64501411459592e-06
-2.6179324025330647e-05
-4.5469352254521147e-05
-5.098078889143272e-05
-5.098078889143272e-05
-5.3736507209888505e-05
-6.200366216525588e-05
-6.751509880216745e-05
-7.302653543907902e-05
-7.027081712062322e-05
-7.027081712062322e-05
-7.57822537575348e-05
-8.404940871290214e-05
-8.956084534981374e-05
-8.956084534981374e-05
-9.231656366826955e-05
-8.956084534981374e-05
-2.8935042343786426e-05
0.00014467521171892812
0.00042575848020141833
0.0008032918898298613
0.0012028710460059502
0.0015197786526283655
0.0016355188220035087
0.0014398628213931478
0.00092178777752346
0.00022734676127260172
-0.0003982012970168618
-0.0005277200579842838
-0.00040922417029068495
-0.00030726259250782084
-0.00024112535286488197
-0.00018049954985885472
-0.0001584538033112084
-0.00014467521171892948
-0.00014191949340047367
-0.00014191949340047367
-0.0001391637750820179
-0.00013089662012665053
-0.0001198737468528274
-0.00011160659189746003
-0.00010885087357900426
-0.00010885087357900426
-0.00010333943694209268
-9.507228198672531e-05
-8.680512703135793e-05
-8.129369039444639e-05
-8.404940871290214e-05
-8.129369039444639e-05
-7.302653543907902e-05
-6.200366216525588e-05
-5.9247943846800084e-05
-5.6492225528344285e-05
-5.3736507209888505e-05
-4.2713633936065354e-05
-3.995791561760957e-05
-3.995791561760957e-05
-3.720219729915378e-05
-3.4446478980697995e-05
-2.8935042343786426e-05
-2.342360570687485e-05
-1.7912169069963278e-05
-1.7912169069963278e-05
-1.240073243305171e-05
-4.133577477684346e-06
4.133577477683014e-06
1.7912169069961946e-05
2.8935042343785094e-05
4.271363393606403e-05
5.649222552834297e-05
7.30265354390777e-05
8.129369039444505e-05
8.68051270313566e-05
8.68051270313566e-05
8.68051270313566e-05
8.956084534981241e-05
8.956084534981241e-05
8.404940871290084e-05
7.578225375753347e-05
6.751509880216611e-05
5.373650720988717e-05
3.720219729915245e-05
2.3423605706873515e-05
6.8892957961388014e-06
-6.889295796140132e-06
-1.5156450751507488e-05
-2.066788738841907e-05
-2.6179324025330647e-05
-3.169076066224221e-05
-3.995791561760957e-05
-4.5469352254521147e-05
-4.5469352254521147e-05
-3.995791561760957e-05
-4.2713633936065354e-05
-4.2713633936065354e-05
-3.995791561760957e-05
-3.4446478980697995e-05
-3.169076066224221e-05
-2.6179324025330647e-05
-2.066788738841907e-05
-4.133577477684346e-06
-1.377859159228559e-06
4.133577477683014e-06
9.64501411459459e-06
2.066788738841773e-05
3.9957915617608246e-05
5.373650720988717e-05
5.649222552834297e-05
5.373650720988717e-05
5.098078889143139e-05
4.271363393606403e-05
3.720219729915245e-05
2.8935042343785094e-05
2.066788738841773e-05
4.133577477683014e-06
-6.889295796140132e-06
-1.5156450751507488e-05
-3.169076066224221e-05
-4.8225070572976926e-05
-6.200366216525588e-05
-6.751509880216745e-05
-7.027081712062322e-05
-7.027081712062322e-05
-7.027081712062322e-05
-7.57822537575348e-05
-7.85379720759906e-05
-7.85379720759906e-05
-8.129369039444639e-05
-8.956084534981374e-05
-9.78280003051811e-05
-0.00010609515526054846
-0.00011160659189746003
-0.00010333943694209268
-2.8935042343786426e-05
0.00015018664835583973
0.0004395370717936973
0.0008280933546959632
0.0012359396658274198
0.0015556029907682909
0.001660320286869611
0.0014178170748455018
0.0008528948195620654
0.00013640805676356078
-0.00043953707179369863
-0.0005084300297550932
-0.0003899341420614945
-0.00030175115587090934
-0.00024112535286488197
-0.00020530101472495681
-0.00018049954985885472
-0.00016672095826657574
-0.0001584538033112084
-0.00015294236667429682
-0.000150186648355841
-0.00014743093003738526
-0.00014467521171892948
-0.0001364080567635621
-0.00012814090180819475
-0.0001198737468528274
-0.00011436231021591582
-0.00011436231021591582
-0.00011436231021591582
-0.00010609515526054846
-0.00010058371862363688
-9.507228198672531e-05
-9.507228198672531e-05
-9.507228198672531e-05
-8.956084534981374e-05
-8.129369039444639e-05
-7.027081712062322e-05
-7.027081712062322e-05
-6.475938048371164e-05
-5.9247943846800084e-05
-5.3736507209888505e-05
-5.3736507209888505e-05
-5.098078889143272e-05
-4.8225070572976926e-05
-4.2713633936065354e-05
-3.720219729915378e-05
-3.4446478980697995e-05
-2.6179324025330647e-05
-1.7912169069963278e-05
-4.133577477684346e-06
9.64501411459459e-06
2.6179324025329308e-05
3.9957915617608246e-05
5.098078889143139e-05
6.200366216525454e-05
7.02708171206219e-05
7.02708171206219e-05
7.02708171206219e-05
6.751509880216611e-05
6.751509880216611e-05
6.751509880216611e-05
6.200366216525454e-05
5.649222552834297e-05
3.9957915617608246e-05
2.3423605706873515e-05
1.2400732433050376e-05
1.3778591592272275e-06
-9.64501411459592e-06
-2.6179324025330647e-05
-3.4446478980697995e-05
-3.720219729915378e-05
-4.5469352254521147e-05
-4.8225070572976926e-05
-5.098078889143272e-05
-5.6492225528344285e-05
-5.9247943846800084e-05
-5.9247943846800084e-05
-5.6492225528344285e-05
-5.9247943846800084e-05
-5.9247943846800084e-05
-5.3736507209888505e-05
-4.2713633936065354e-05
-3.720219729915378e-05
-3.4446478980697995e-05
-2.8935042343786426e-05
-2.6179324025330647e-05
-2.066788738841907e-05
-9.64501411459592e-06
4.133577477683014e-06
1.7912169069961946e-05
2.8935042343785094e-05
3.720219729915245e-05
3.9957915617608246e-05
3.444647898069667e-05
2.3423605706873515e-05
1.5156450751506162e-05
6.8892957961388014e-06
1.3778591592272275e-06
-9.64501411459592e-06
-2.342360570687485e-05
-3.995791561760957e-05
-5.098078889143272e-05
-6.200366216525588e-05
-7.302653543907902e-05
-8.404940871290214e-05
-8.680512703135793e-05
-8.680512703135793e-05
-8.680512703135793e-05
-9.231656366826955e-05
-0.00010058371862363688
-0.00010058371862363688
-0.00010058371862363688
-0.00010885087357900426
-0.0001198737468528274
-0.0001391637750820179
-0.00014191949340047367
-6.200366216525588e-05
0.00012814090180819342
0.00043126991683832994
0.0008418719462882423
0.0012690082856488892
0.0016052059205004952
0.0017181903715571825
0.0014591528496223384
0.0008721848477912556
0.0001556980849927513
-0.0004285141985198755
-0.0004918957198443586
-0.00037615555046921565
-0.0002989954375524536
-0.0002521482261387052
-0.0002190796063172357
-0.00018876670481422206
-0.00017498811322194308
-0.00017223239490348733
-0.00016947667658503157
-0.00016672095826657574
-0.0001612095216296642
-0.00015294236667429682
-0.000150186648355841
-0.000150186648355841
-0.00014467521171892948
-0.0001391637750820179
-0.0001336523384451063
-0.00013089662012665053
-0.00012814090180819475
-0.0001171180285343716
-0.00010885087357900426
-0.00010609515526054846
-0.00010333943694209268
-0.00010058371862363688
-0.00010058371862363688
-9.78280003051811e-05
-8.956084534981374e-05
-8.680512703135793e-05
-8.680512703135793e-05
-8.680512703135793e-05
-8.404940871290214e-05
-8.129369039444639e-05
-8.129369039444639e-05
-8.129369039444639e-05
-8.129369039444639e-05
-7.57822537575348e-05
-7.027081712062322e-05
-6.751509880216745e-05
-6.200366216525588e-05
-5.6492225528344285e-05
-5.098078889143272e-05
-3.720219729915378e-05
-2.8935042343786426e-05
-2.066788738841907e-05
-1.5156450751507488e-05
-9.64501411459592e-06
-6.889295796140132e-06
-1.377859159228559e-06
-1.377859159228559e-06
1.3778591592272275e-06
6.8892957961388014e-06
6.8892957961388014e-06
-1.377859159228559e-06
-1.5156450751507488e-05
-2.8935042343786426e-05
-3.995791561760957e-05
-4.8225070572976926e-05
-5.9247943846800084e-05
-7.027081712062322e-05
-7.85379720759906e-05
-8.129369039444639e-05
-8.129369039444639e-05
-8.129369039444639e-05
-8.404940871290214e-05
-8.956084534981374e-05
-8.680512703135793e-05
-8.129369039444639e-05
-7.85379720759906e-05
-7.85379720759906e-05
-7.027081712062322e-05
-5.6492225528344285e-05
-3.995791561760957e-05
-3.169076066224221e-05
-2.8935042343786426e-05
-2.6179324025330647e-05
-1.7912169069963278e-05
1.3778591592272275e-06
2.066788738841773e-05
3.169076066224089e-05
3.9957915617608246e-05
3.9957915617608246e-05
4.271363393606403e-05
4.271363393606403e-05
3.444647898069667e-05
2.6179324025329308e-05
1.7912169069961946e-05
6.8892957961388014e-06
-4.133577477684346e-06
-1.240073243305171e-05
-2.6179324025330647e-05
-4.5469352254521147e-05
-6.475938048371164e-05
-6.751509880216745e-05
-7.302653543907902e-05
-7.85379720759906e-05
-8.404940871290214e-05
-8.956084534981374e-05
-8.956084534981374e-05
-8.680512703135793e-05
-8.956084534981374e-05
-0.00010058371862363688
-0.00010609515526054846
-0.00010885087357900426
-0.0001171180285343716
-0.0001336523384451063
-0.00014191949340047367
-6.475938048371164e-05
0.00014743093003738393
0.00048362856488898997
0.0009135206225680924
0.0013434126802471958
0.001671343160143434
0.0017622818646524754
0.0008887191577019906
0.00016672095826657444
-0.00041197988860914084
-0.0004698499732967123
-0.0003568655222400251
-0.00027694969100480727
-0.00023285819790951464
-0.0002108124513618684
-0.00018876670481422206
-0.00016947667658503157
-0.00016396523994811996
-0.0001612095216296642
-0.0001584538033112084
-0.0001584538033112084
-0.000150186648355841
-0.00014467521171892948
-0.0001391637750820179
-0.0001391637750820179
-0.0001364080567635621
-0.00013089662012665053
-0.0001226294651712832
-0.00011436231021591582
-0.00011436231021591582
-0.00011436231021591582
-0.00010885087357900426
-0.00010058371862363688
-9.78280003051811e-05
-9.507228198672531e-05
-9.231656366826955e-05
-8.680512703135793e-05
-7.85379720759906e-05
-7.57822537575348e-05
-7.85379720759906e-05
-7.85379720759906e-05
-7.027081712062322e-05
-6.751509880216745e-05
-6.475938048371164e-05
-6.475938048371164e-05
-6.475938048371164e-05
-6.200366216525588e-05
-5.6492225528344285e-05
-4.8225070572976926e-05
-3.995791561760957e-05
-3.4446478980697995e-05
-3.169076066224221e-05
-2.6179324025330647e-05
-1.7912169069963278e-05
-1.7912169069963278e-05
-1.7912169069963278e-05
-2.342360570687485e-05
-2.342360570687485e-05
-1.7912169069963278e-05
-1.7912169069963278e-05
-1.7912169069963278e-05
-1.240073243305171e-05
-6.889295796140132e-06
-6.889295796140132e-06
-1.5156450751507488e-05
-2.6179324025330647e-05
-3.995791561760957e-05
-5.3736507209888505e-05
-5.6492225528344285e-05
-6.475938048371164e-05
-7.302653543907902e-05
-8.404940871290214e-05
-8.956084534981374e-05
-8.956084534981374e-05
-9.231656366826955e-05
-9.231656366826955e-05
-9.507228198672531e-05
-8.680512703135793e-05
-8.129369039444639e-05
-7.027081712062322e-05
-5.9247943846800084e-05
-5.098078889143272e-05
-4.2713633936065354e-05
-3.4446478980697995e-05
-2.8935042343786426e-05
-1.7912169069963278e-05
-4.133577477684346e-06
1.2400732433050376e-05
3.169076066224089e-05
3.9957915617608246e-05
4.271363393606403e-05
3.9957915617608246e-05
3.9957915617608246e-05
3.444647898069667e-05
2.8935042343785094e-05
2.066788738841773e-05
9.64501411459459e-06
-4.133577477684346e-06
-9.64501411459592e-06
-2.066788738841907e-05
-3.720219729915378e-05
-5.6492225528344285e-05
-6.475938048371164e-05
-6.751509880216745e-05
-7.302653543907902e-05
-7.57822537575348e-05
-7.85379720759906e-05
-8.680512703135793e-05
-8.956084534981374e-05
-9.231656366826955e-05
-9.507228198672531e-05
-0.00010058371862363688
-0.00011160659189746003
-0.0001226294651712832
-0.0001391637750820179
-0.0001364080567635621
-4.2713633936065354e-05
0.000172232394903486
0.0005277200579842825
0.00097414642557412
0.0014150613565270462
0.0017292132448310056
0.0017843276112001212
0.0014591528496223384
0.000858406256198977
0.00013089662012664922
-0.0004202470435645082
-0.00045331566338597764
-0.0003403312123292903
-0.00026592681773098404
-0.00022459104295414727
-0.00020254529640650095
-0.00018325526817731047
-0.00017223239490348733
-0.00016672095826657574
-0.0001612095216296642
-0.0001584538033112084
-0.0001584538033112084
-0.00015569808499275262
-0.000150186648355841
-0.00014191949340047367
-0.0001364080567635621
-0.0001336523384451063
-0.0001336523384451063
-0.0001198737468528274
-0.00011436231021591582
-0.00011160659189746003
-0.00011160659189746003
-0.00011160659189746003
-0.00010609515526054846
-0.00010333943694209268
-0.00010609515526054846
-0.00010058371862363688
-9.78280003051811e-05
-9.231656366826955e-05
-8.404940871290214e-05
-8.129369039444639e-05
-8.404940871290214e-05
-8.404940871290214e-05
-8.129369039444639e-05
-8.129369039444639e-05
-7.85379720759906e-05
-7.57822537575348e-05
-7.57822537575348e-05
-7.027081712062322e-05
-5.9247943846800084e-05
-5.098078889143272e-05
-4.8225070572976926e-05
-4.8225070572976926e-05
-4.5469352254521147e-05
-4.2713633936065354e-05
-4.2713633936065354e-05
-5.098078889143272e-05
-5.6492225528344285e-05
-5.6492225528344285e-05
-5.098078889143272e-05
-4.5469352254521147e-05
-3.995791561760957e-05
-4.2713633936065354e-05
-3.995791561760957e-05
-3.995791561760957e-05
-4.5469352254521147e-05
-5.6492225528344285e-05
-7.027081712062322e-05
-7.85379720759906e-05
-8.404940871290214e-05
-8.680512703135793e-05
-9.231656366826955e-05
-9.78280003051811e-05
-0.00010333943694209268
-0.00010609515526054846
-0.00010609515526054846
-0.00010609515526054846
-0.00011160659189746003
-0.00010885087357900426
-0.00010058371862363688
-8.956084534981374e-05
-7.85379720759906e-05
-6.751509880216745e-05
-6.200366216525588e-05
-5.6492225528344285e-05
-4.2713633936065354e-05
-2.8935042343786426e-05
-9.64501411459592e-06
6.8892957961388014e-06
2.066788738841773e-05
3.169076066224089e-05
3.720219729915245e-05
3.9957915617608246e-05
3.720219729915245e-05
3.169076066224089e-05
2.3423605706873515e-05
9.64501411459459e-06
-4.133577477684346e-06
-1.5156450751507488e-05
-2.8935042343786426e-05
-4.2713633936065354e-05
-5.9247943846800084e-05
-6.751509880216745e-05
-7.302653543907902e-05
-7.85379720759906e-05
-8.404940871290214e-05
-8.956084534981374e-05
-9.507228198672531e-05
-0.00010058371862363688
-0.00010333943694209268
-0.00010333943694209268
-0.00011160659189746003
-0.0001226294651712832
-0.0001391637750820179
-0.0001584538033112084
-0.00014743093003738526
-3.995791561760957e-05
0.00019427814145113231
0.0005580329594872961
0.0009961921721217662
0.0014260842298008686
0.0017126789349202708
0.0017181903715571825
0.0013489241168841066
0.0007316432135500107
9.64501411459459e-06
-0.00048362856488899143
-0.00047536140993362393
-0.000370644113832304
-0.0003045068741893651
-0.0002631710994125282
-0.00023285819790951464
-0.00020530101472495681
-0.00018876670481422206
-0.00018601098649576628
-0.00018876670481422206
-0.00018325526817731047
-0.00017498811322194308
-0.00017223239490348733
-0.00016947667658503157
-0.00016672095826657574
-0.0001584538033112084
-0.00014743093003738526
-0.00014743093003738526
-0.00014467521171892948
-0.00014467521171892948
-0.0001391637750820179
-0.00012814090180819475
-0.00012814090180819475
-0.00012814090180819475
-0.00012814090180819475
-0.0001226294651712832
-0.0001171180285343716
-0.00011436231021591582
-0.0001171180285343716
-0.0001171180285343716
-0.00011160659189746003
-0.00010885087357900426
-0.00010333943694209268
-0.00010333943694209268
-0.00010333943694209268
-0.00010058371862363688
-9.507228198672531e-05
-9.231656366826955e-05
-8.404940871290214e-05
-7.85379720759906e-05
-6.751509880216745e-05
-5.9247943846800084e-05
-5.6492225528344285e-05
-5.6492225528344285e-05
-6.200366216525588e-05
-6.200366216525588e-05
-6.475938048371164e-05
-6.751509880216745e-05
-7.027081712062322e-05
-7.302653543907902e-05
-7.302653543907902e-05
-6.751509880216745e-05
-6.475938048371164e-05
-6.475938048371164e-05
-6.751509880216745e-05
-7.302653543907902e-05
-7.85379720759906e-05
-8.404940871290214e-05
-9.231656366826955e-05
-0.00010058371862363688
-0.00010609515526054846
-0.00010885087357900426
-0.00011436231021591582
-0.0001198737468528274
-0.00012538518348973897
-0.0001336523384451063
-0.0001336523384451063
-0.00013089662012665053
-0.00013089662012665053
-0.00012538518348973897
-0.0001171180285343716
-0.00010058371862363688
-8.680512703135793e-05
-8.129369039444639e-05
-7.85379720759906e-05
-7.027081712062322e-05
-5.098078889143272e-05
-3.169076066224221e-05
-1.7912169069963278e-05
-9.64501411459592e-06
-4.133577477684346e-06
1.3778591592272275e-06
1.3778591592272275e-06
1.3778591592272275e-06
-9.64501411459592e-06
-2.066788738841907e-05
-2.342360570687485e-05
-2.6179324025330647e-05
-3.4446478980697995e-05
-5.098078889143272e-05
-6.475938048371164e-05
-7.85379720759906e-05
-8.956084534981374e-05
-9.78280003051811e-05
-0.00010609515526054846
-0.00010885087357900426
-0.00011160659189746003
-0.00011436231021591582
-0.00011436231021591582
-0.0001171180285343716
-0.00012814090180819475
-0.0001364080567635621
-0.0001364080567635621
-0.00014467521171892948
-0.0001584538033112084
-0.00017223239490348733
-0.00012814090180819475
0.0003293083390554659
0.0007343989318684667
0.0011477566796368347
0.0014977329060807197
0.0016685874418249785
0.0015556029907682909
0.0010871308766308072
0.0004395370717936973
-0.00024388107118333775
-0.0005249643396658282
-0.000447804226749066
-0.0003513540856031135
-0.0002989954375524536
-0.00027143825436789566
-0.00024112535286488197
-0.00021356816968032413
-0.00020530101472495681
-0.00020530101472495681
-0.00020530101472495681
-0.0001997895780880452
-0.00019152242313267784
-0.00018325526817731047
-0.00018325526817731047
-0.00018325526817731047
-0.00018049954985885472
-0.00017223239490348733
-0.00016396523994811996
-0.0001612095216296642
-0.0001612095216296642
-0.0001612095216296642
-0.0001584538033112084
-0.000150186648355841
-0.00014743093003738526
-0.000150186648355841
-0.000150186648355841
-0.000150186648355841
-0.00014467521171892948
-0.00014191949340047367
-0.0001391637750820179
-0.00014467521171892948
-0.00014743093003738526
-0.00014191949340047367
-0.0001391637750820179
-0.00014191949340047367
-0.00014743093003738526
-0.000150186648355841
-0.00014467521171892948
-0.0001391637750820179
-0.0001336523384451063
-0.00013089662012665053
-0.00012814090180819475
-0.0001198737468528274
-0.0001171180285343716
-0.00011160659189746003
-0.00011436231021591582
-0.0001171180285343716
-0.0001198737468528274
-0.0001198737468528274
-0.0001198737468528274
-0.0001226294651712832
-0.0001226294651712832
-0.0001226294651712832
-0.0001171180285343716
-0.00010885087357900426
-0.00011160659189746003
-0.0001171180285343716
-0.0001171180285343716
-0.00011436231021591582
-0.00010885087357900426
-0.00011160659189746003
-0.0001198737468528274
-0.00011436231021591582
-0.00011436231021591582
-0.0001226294651712832
-0.00012814090180819475
-0.00013089662012665053
-0.00013089662012665053
-0.00012538518348973897
-0.0001198737468528274
-0.00011160659189746003
-0.00010333943694209268
-9.507228198672531e-05
-8.680512703135793e-05
-8.129369039444639e-05
-7.027081712062322e-05
-5.6492225528344285e-05
-4.2713633936065354e-05
-2.8935042343786426e-05
-2.066788738841907e-05
-1.240073243305171e-05
-1.240073243305171e-05
-1.240073243305171e-05
-1.240073243305171e-05
-1.7912169069963278e-05
-2.6179324025330647e-05
-3.4446478980697995e-05
-4.2713633936065354e-05
-5.098078889143272e-05
-6.200366216525588e-05
-7.57822537575348e-05
-8.956084534981374e-05
-0.00010333943694209268
-0.00010885087357900426
-0.00011160659189746003
-0.0001171180285343716
-0.0001226294651712832
-0.00012814090180819475
-0.00012538518348973897
-0.00012538518348973897
-0.00013089662012665053
-0.0001391637750820179
-0.000150186648355841
-0.00015569808499275262
-0.00015294236667429682
-0.00014191949340047367
-5.3736507209888505e-05
0.00014743093003738393
0.0004781171282520784
0.0008832077210650791
0.0012745197222858006
0.0015390686808575565
0.0015721373006790259
0.0012800311589227123
0.0007068417486839086
3.444647898069667e-05
-0.00047260569161516804
-0.0005139414663920051
-0.00041197988860914084
-0.0003375754940108345
-0.00029072828259708617
-0.0002521482261387052
-0.00022734676127260308
-0.0002108124513618684
-0.00020530101472495681
-0.0001997895780880452
-0.00019427814145113364
-0.00019152242313267784
-0.00018601098649576628
-0.00018049954985885472
-0.00017498811322194308
-0.00016947667658503157
-0.00016947667658503157
-0.00016947667658503157
-0.00016396523994811996
-0.0001584538033112084
-0.00015569808499275262
-0.0001584538033112084
-0.0001584538033112084
-0.00015294236667429682
-0.000150186648355841
-0.00014743093003738526
-0.000150186648355841
-0.000150186648355841
-0.00015294236667429682
-0.00014743093003738526
-0.000150186648355841
-0.00015294236667429682
-0.00015569808499275262
-0.0001584538033112084
-0.00015569808499275262
-0.0001584538033112084
-0.0001584538033112084
-0.0001584538033112084
-0.00015569808499275262
-0.00014467521171892948
-0.0001364080567635621
-0.0001336523384451063
-0.0001336523384451063
-0.0001336523384451063
-0.00012814090180819475
-0.00013089662012665053
-0.0001364080567635621
-0.00014191949340047367
-0.00014191949340047367
-0.0001391637750820179
-0.0001391637750820179
-0.0001336523384451063
-0.00012814090180819475
-0.0001226294651712832
-0.0001198737468528274
-0.0001171180285343716
-0.00011160659189746003
-0.00011436231021591582
-0.0001198737468528274
-0.0001171180285343716
-0.00011160659189746003
-0.00011436231021591582
-0.0001171180285343716
-0.0001226294651712832
-0.0001198737468528274
-0.0001198737468528274
-0.0001226294651712832
-0.00012814090180819475
-0.00012814090180819475
-0.0001226294651712832
-0.00011436231021591582
-0.00010058371862363688
-8.956084534981374e-05
-8.956084534981374e-05
-8.129369039444639e-05
-7.027081712062322e-05
-5.6492225528344285e-05
-3.995791561760957e-05
-3.169076066224221e-05
-2.066788738841907e-05
-1.377859159228559e-06
1.3778591592272275e-06
-1.377859159228559e-06
-6.889295796140132e-06
-1.240073243305171e-05
-1.5156450751507488e-05
-2.066788738841907e-05
-2.8935042343786426e-05
-3.995791561760957e-05
-5.098078889143272e-05
-6.200366216525588e-05
-7.57822537575348e-05
-8.680512703135793e-05
-9.231656366826955e-05
-9.507228198672531e-05
-9.507228198672531e-05
-9.507228198672531e-05
-9.78280003051811e-05
-0.00010609515526054846
-0.00010885087357900426
-0.00010885087357900426
-0.00011436231021591582
-0.0001226294651712832
-0.00013089662012665053
-0.0001364080567635621
-0.00010609515526054846
2.3423605706873515e-05
0.00026592681773098274
0.0006131473258564118
0.0010182379186694126
0.0013957713282978553
0.001630007385366597
0.0015941830472266717
0.0012111382009613175
0.0005938572976272215
-0.00010609515526054846
-0.0004918957198443586
-0.00045331566338597764
-0.0003485983672846577
-0.00027970540932326305
-0.00024388107118333775
-0.00021632388799877996
-0.00018325526817731047
-0.00016672095826657574
-0.00016672095826657574
-0.00016672095826657574
-0.0001612095216296642
-0.00015569808499275262
-0.00015294236667429682
-0.000150186648355841
-0.00014467521171892948
-0.0001391637750820179
-0.00013089662012665053
-0.00012538518348973897
-0.00012814090180819475
-0.0001198737468528274
-0.00011160659189746003
-0.00011160659189746003
-0.00010609515526054846
-0.00010609515526054846
-0.00010609515526054846
-0.00010058371862363688
-9.507228198672531e-05
-9.231656366826955e-05
-9.231656366826955e-05
-9.507228198672531e-05
-9.507228198672531e-05
-9.507228198672531e-05
-0.00010058371862363688
-9.78280003051811e-05
-9.507228198672531e-05
-9.231656366826955e-05
-8.956084534981374e-05
-8.956084534981374e-05
-8.956084534981374e-05
-8.404940871290214e-05
-7.302653543907902e-05
-6.475938048371164e-05
-5.9247943846800084e-05
-5.6492225528344285e-05
-5.6492225528344285e-05
-5.3736507209888505e-05
-4.5469352254521147e-05
-3.995791561760957e-05
-4.2713633936065354e-05
-3.720219729915378e-05
-2.8935042343786426e-05
-2.342360570687485e-05
-2.342360570687485e-05
-3.169076066224221e-05
-4.2713633936065354e-05
-5.098078889143272e-05
-5.6492225528344285e-05
-6.475938048371164e-05
-7.57822537575348e-05
-8.129369039444639e-05
-8.129369039444639e-05
-8.404940871290214e-05
-8.680512703135793e-05
-8.956084534981374e-05
-9.231656366826955e-05
-9.231656366826955e-05
-8.956084534981374e-05
-8.404940871290214e-05
-8.129369039444639e-05
-7.85379720759906e-05
-7.302653543907902e-05
-5.6492225528344285e-05
-4.2713633936065354e-05
-3.4446478980697995e-05
-3.169076066224221e-05
-2.8935042343786426e-05
-1.7912169069963278e-05
1.3778591592272275e-06
1.7912169069961946e-05
2.8935042343785094e-05
3.444647898069667e-05
3.9957915617608246e-05
4.546935225451981e-05
4.546935225451981e-05
3.444647898069667e-05
2.3423605706873515e-05
1.7912169069961946e-05
1.2400732433050376e-05
1.3778591592272275e-06
-9.64501411459592e-06
-2.6179324025330647e-05
-4.2713633936065354e-05
-5.3736507209888505e-05
-5.9247943846800084e-05
-6.475938048371164e-05
-7.302653543907902e-05
-8.129369039444639e-05
-8.129369039444639e-05
-8.129369039444639e-05
-8.129369039444639e-05
-9.231656366826955e-05
-9.507228198672531e-05
-9.78280003051811e-05
-0.00010333943694209268
-0.00010609515526054846
-9.231656366826955e-05
6.8892957961388014e-06
0.0002190796063172344
0.0005332314946211942
0.0009272992141603715
0.0013020769054703587
0.0015611144274052025
0.0015748930189974813
0.001244206820782787
0.0006407045090409697
-8.129369039444639e-05
-0.0005304757763027395
-0.0004974071564812702
-0.00037339983215075977
-0.00028797256427863044
-0.00023561391622797047
-0.00020254529640650095
-0.00017498811322194308
-0.00015569808499275262
-0.00015294236667429682
-0.00015294236667429682
-0.000150186648355841
-0.00014743093003738526
-0.00014191949340047367
-0.0001364080567635621
-0.00012814090180819475
-0.0001226294651712832
-0.0001171180285343716
-0.00010609515526054846
-0.00010058371862363688
-0.00010058371862363688
-0.00010058371862363688
-9.78280003051811e-05
-8.956084534981374e-05
-8.129369039444639e-05
-7.85379720759906e-05
-7.57822537575348e-05
-7.302653543907902e-05
-6.751509880216745e-05
-6.200366216525588e-05
-5.6492225528344285e-05
-5.3736507209888505e-05
-5.098078889143272e-05
-4.5469352254521147e-05
-3.720219729915378e-05
-3.169076066224221e-05
-2.8935042343786426e-05
-2.342360570687485e-05
-1.5156450751507488e-05
-1.377859159228559e-06
1.5156450751506162e-05
3.169076066224089e-05
4.271363393606403e-05
5.9247943846798756e-05
7.578225375753347e-05
8.956084534981241e-05
9.782800030517979e-05
9.507228198672396e-05
9.23165636682682e-05
9.507228198672396e-05
9.23165636682682e-05
8.68051270313566e-05
7.30265354390777e-05
5.649222552834297e-05
4.271363393606403e-05
2.3423605706873515e-05
4.133577477683014e-06
-1.240073243305171e-05
-2.6179324025330647e-05
-3.169076066224221e-05
-3.995791561760957e-05
-5.3736507209888505e-05
-6.200366216525588e-05
-6.475938048371164e-05
-6.200366216525588e-05
-6.751509880216745e-05
-7.302653543907902e-05
-7.57822537575348e-05
-7.302653543907902e-05
-6.751509880216745e-05
-6.200366216525588e-05
-5.9247943846800084e-05
-5.3736507209888505e-05
-4.5469352254521147e-05
-3.720219729915378e-05
-3.169076066224221e-05
-2.8935042343786426e-05
-2.6179324025330647e-05
-1.7912169069963278e-05
-1.377859159228559e-06
1.7912169069961946e-05
2.6179324025329308e-05
2.8935042343785094e-05
2.8935042343785094e-05
2.8935042343785094e-05
2.6179324025329308e-05
1.7912169069961946e-05
6.8892957961388014e-06
-4.133577477684346e-06
-1.5156450751507488e-05
-2.6179324025330647e-05
-3.4446478980697995e-05
-4.8225070572976926e-05
-6.475938048371164e-05
-7.027081712062322e-05
-7.85379720759906e-05
-8.404940871290214e-05
-8.680512703135793e-05
-8.956084534981374e-05
-9.231656366826955e-05
-9.231656366826955e-05
-9.231656366826955e-05
-9.78280003051811e-05
-0.00010333943694209268
-0.00011160659189746003
-0.0001171180285343716
-0.00012814090180819475
-0.00012814090180819475
-6.475938048371164e-05
0.00011160659189745871
0.00040371273365377215
0.0007950247348744939
0.001205626764324406
0.0015363129625391005
0.0016548088502326991
0.0014288399481193247
0.0008721848477912556
0.00016396523994811866
-0.0004312699168383313
-0.0005166971847104609
-0.00039268986037995033
-0.00030175115587090934
-0.00021356816968032413
-0.00019152242313267784
-0.00017223239490348733
-0.0001612095216296642
-0.0001612095216296642
-0.00016396523994811996
-0.0001612095216296642
-0.00015294236667429682
-0.00014191949340047367
-0.0001336523384451063
-0.00013089662012665053
-0.00012814090180819475
-0.00012538518348973897
-0.0001198737468528274
-0.00011160659189746003
-0.00010885087357900426
-0.00010609515526054846
-0.00010058371862363688
-9.507228198672531e-05
-8.956084534981374e-05
-8.680512703135793e-05
-8.129369039444639e-05
-8.129369039444639e-05
-7.85379720759906e-05
-7.302653543907902e-05
-6.751509880216745e-05
-6.200366216525588e-05
-6.475938048371164e-05
-5.9247943846800084e-05
-5.3736507209888505e-05
-5.098078889143272e-05
-4.5469352254521147e-05
-3.995791561760957e-05
-3.4446478980697995e-05
-2.6179324025330647e-05
-1.240073243305171e-05
1.3778591592272275e-06
9.64501411459459e-06
2.066788738841773e-05
3.9957915617608246e-05
4.82250705729756e-05
5.373650720988717e-05
5.373650720988717e-05
5.649222552834297e-05
5.9247943846798756e-05
6.200366216525454e-05
6.200366216525454e-05
5.373650720988717e-05
4.546935225451981e-05
3.720219729915245e-05
2.6179324025329308e-05
9.64501411459459e-06
-9.64501411459592e-06
-2.342360570687485e-05
-3.720219729915378e-05
-4.2713633936065354e-05
-4.5469352254521147e-05
-5.3736507209888505e-05
-5.9247943846800084e-05
-6.200366216525588e-05
-5.9247943846800084e-05
-5.9247943846800084e-05
-6.200366216525588e-05
-6.475938048371164e-05
-6.751509880216745e-05
-6.200366216525588e-05
-5.098078889143272e-05
-3.995791561760957e-05
-2.8935042343786426e-05
-2.066788738841907e-05
-1.7912169069963278e-05
-1.240073243305171e-05
-4.133577477684346e-06
9.64501411459459e-06
2.8935042343785094e-05
4.546935225451981e-05
5.098078889143139e-05
4.546935225451981e-05
4.271363393606403e-05
3.720219729915245e-05
2.8935042343785094e-05
1.7912169069961946e-05
9.64501411459459e-06
-4.133577477684346e-06
-1.7912169069963278e-05
-2.6179324025330647e-05
-3.720219729915378e-05
-5.6492225528344285e-05
-7.027081712062322e-05
-7.57822537575348e-05
-7.85379720759906e-05
-7.85379720759906e-05
-8.404940871290214e-05
-8.956084534981374e-05
-9.507228198672531e-05
-9.507228198672531e-05
-9.231656366826955e-05
-9.507228198672531e-05
-0.00010333943694209268
-0.00011436231021591582
-0.00012538518348973897
-0.0001336523384451063
-9.78280003051811e-05
3.9957915617608246e-05
0.0002934840009155406
0.000676528847180895
0.0011064209048599978
0.0014977329060807197
0.0017126789349202708
0.0016107173571374067
0.001136733806363011
0.0004670942549782553
-0.00023561391622797047
-0.0005139414663920051
-0.0004257584802014197
-0.00032655262073701135
-0.0002604153810940725
-0.00022459104295414727
-0.0001997895780880452
-0.0001777438315403989
-0.00016947667658503157
-0.00016672095826657574
-0.00016396523994811996
-0.0001584538033112084
-0.00015569808499275262
-0.00015294236667429682
-0.000150186648355841
-0.0001364080567635621
-0.00013089662012665053
-0.0001336523384451063
-0.00013089662012665053
-0.00012538518348973897
-0.0001171180285343716
-0.00011160659189746003
-0.00010885087357900426
-0.00010885087357900426
-9.507228198672531e-05
-8.956084534981374e-05
-9.231656366826955e-05
-9.231656366826955e-05
-8.680512703135793e-05
-8.129369039444639e-05
-8.129369039444639e-05
-7.85379720759906e-05
-7.57822537575348e-05
-7.027081712062322e-05
-6.751509880216745e-05
-6.475938048371164e-05
-5.9247943846800084e-05
-5.6492225528344285e-05
-5.098078889143272e-05
-4.2713633936065354e-05
-3.4446478980697995e-05
-2.342360570687485e-05
-1.240073243305171e-05
-9.64501411459592e-06
-4.133577477684346e-06
1.3778591592272275e-06
1.3778591592272275e-06
4.133577477683014e-06
4.133577477683014e-06
6.8892957961388014e-06
1.2400732433050376e-05
1.2400732433050376e-05
6.8892957961388014e-06
-1.377859159228559e-06
-9.64501411459592e-06
-1.7912169069963278e-05
-2.8935042343786426e-05
-4.2713633936065354e-05
-5.6492225528344285e-05
-6.475938048371164e-05
-7.302653543907902e-05
-7.85379720759906e-05
-8.404940871290214e-05
-8.956084534981374e-05
-9.231656366826955e-05
-9.231656366826955e-05
-9.231656366826955e-05
-8.956084534981374e-05
-9.231656366826955e-05
-8.956084534981374e-05
-8.404940871290214e-05
-7.027081712062322e-05
-5.6492225528344285e-05
-4.8225070572976926e-05
-4.5469352254521147e-05
-3.995791561760957e-05
-3.169076066224221e-05
-1.7912169069963278e-05
-1.377859159228559e-06
6.8892957961388014e-06
2.066788738841773e-05
3.169076066224089e-05
3.169076066224089e-05
3.169076066224089e-05
2.6179324025329308e-05
1.7912169069961946e-05
1.2400732433050376e-05
9.64501411459459e-06
-4.133577477684346e-06
-2.342360570687485e-05
-3.720219729915378e-05
-4.5469352254521147e-05
-7.027081712062322e-05
-8.129369039444639e-05
-8.956084534981374e-05
-9.231656366826955e-05
-9.507228198672531e-05
-9.507228198672531e-05
-0.00010058371862363688
-0.00010333943694209268
-0.00010609515526054846
-0.00010609515526054846
-0.00010885087357900426
-0.0001226294651712832
-0.0001364080567635621
-0.0001584538033112084
-0.000150186648355841
-4.8225070572976926e-05
0.00017498811322194178
0.0005304757763027383
0.0009686349889372082
0.0014040384832532226
0.0017154346532387268
0.0017567704280155635
0.0014150613565270462
0.0007895132982375822
6.200366216525454e-05
-0.00045055994506752175
-0.00045882710002288904
-0.00035410980392156926
-0.0002852168459601746
-0.00024388107118333775
-0.00021356816968032413
-0.00019152242313267784
-0.00018049954985885472
-0.0001777438315403989
-0.00017498811322194308
-0.00016947667658503157
-0.00016672095826657574
-0.0001612095216296642
-0.00015294236667429682
-0.000150186648355841
-0.00014467521171892948
-0.0001391637750820179
-0.0001364080567635621
-0.0001336523384451063
-0.00013089662012665053
-0.00012538518348973897
-0.0001171180285343716
-0.00011436231021591582
-0.00011436231021591582
-0.00011436231021591582
-0.00010609515526054846
-9.78280003051811e-05
-9.507228198672531e-05
-9.78280003051811e-05
-9.78280003051811e-05
-9.507228198672531e-05
-8.404940871290214e-05
-8.129369039444639e-05
-8.404940871290214e-05
-8.404940871290214e-05
-8.129369039444639e-05
-7.57822537575348e-05
-7.57822537575348e-05
-7.027081712062322e-05
-7.027081712062322e-05
-6.475938048371164e-05
-5.3736507209888505e-05
-4.2713633936065354e-05
-3.995791561760957e-05
-4.5469352254521147e-05
-4.5469352254521147e-05
-4.5469352254521147e-05
-4.8225070572976926e-05
-4.8225070572976926e-05
-4.5469352254521147e-05
-3.720219729915378e-05
-3.169076066224221e-05
-3.169076066224221e-05
-3.169076066224221e-05
-3.720219729915378e-05
-4.5469352254521147e-05
-5.6492225528344285e-05
-6.475938048371164e-05
-7.85379720759906e-05
-8.956084534981374e-05
-9.507228198672531e-05
-9.78280003051811e-05
-0.00010058371862363688
-0.00010609515526054846
-0.00011160659189746003
-0.00011160659189746003
-0.00010609515526054846
-0.00010333943694209268
-0.00010058371862363688
-9.78280003051811e-05
-9.231656366826955e-05
-7.57822537575348e-05
-5.9247943846800084e-05
-4.8225070572976926e-05
-3.995791561760957e-05
-3.4446478980697995e-05
-2.342360570687485e-05
-4.133577477684346e-06
1.5156450751506162e-05
3.169076066224089e-05
3.720219729915245e-05
3.9957915617608246e-05
4.546935225451981e-05
4.546935225451981e-05
3.444647898069667e-05
2.6179324025329308e-05
2.066788738841773e-05
9.64501411459459e-06
1.3778591592272275e-06
-9.64501411459592e-06
-2.6179324025330647e-05
-4.2713633936065354e-05
-5.6492225528344285e-05
-6.475938048371164e-05
-7.027081712062322e-05
-7.85379720759906e-05
-8.404940871290214e-05
-8.680512703135793e-05
-8.680512703135793e-05
-8.956084534981374e-05
-9.507228198672531e-05
-9.78280003051811e-05
-0.00010058371862363688
-0.00010885087357900426
-0.0001226294651712832
-0.00014191949340047367
-0.00015569808499275262
-9.507228198672531e-05
9.507228198672396e-05
0.00041197988860913943
0.0008363605096513305
0.001285542595559624
0.001800861921110856
0.0015914273289082165
0.001037527946898603
0.000340331212329289
-0.0003155297474631883
-0.00047260569161516804
-0.0003651326771953924
-0.00028797256427863044
-0.0002466367895017936
-0.0002190796063172357
-0.00019427814145113364
-0.00017498811322194308
-0.00016947667658503157
-0.00017223239490348733
-0.00016947667658503157
-0.00015569808499275262
-0.000150186648355841
-0.00014743093003738526
-0.00014743093003738526
-0.00014743093003738526
-0.0001391637750820179
-0.00013089662012665053
-0.00012538518348973897
-0.0001226294651712832
-0.0001226294651712832
-0.00011436231021591582
-0.00010885087357900426
-0.00010609515526054846
-0.00010609515526054846
-0.00010333943694209268
-9.78280003051811e-05
-9.507228198672531e-05
-8.680512703135793e-05
-8.129369039444639e-05
-8.404940871290214e-05
-8.404940871290214e-05
-7.85379720759906e-05
-7.302653543907902e-05
-7.302653543907902e-05
-7.57822537575348e-05
-7.57822537575348e-05
-7.302653543907902e-05
-6.475938048371164e-05
-5.6492225528344285e-05
-5.3736507209888505e-05
-4.8225070572976926e-05
-3.995791561760957e-05
-3.4446478980697995e-05
-3.169076066224221e-05
-3.169076066224221e-05
-3.720219729915378e-05
-4.2713633936065354e-05
-4.5469352254521147e-05
-4.5469352254521147e-05
-4.5469352254521147e-05
-4.5469352254521147e-05
-3.995791561760957e-05
-3.4446478980697995e-05
-3.169076066224221e-05
-3.4446478980697995e-05
-4.2713633936065354e-05
-5.3736507209888505e-05
-6.200366216525588e-05
-7.302653543907902e-05
-8.404940871290214e-05
-9.507228198672531e-05
-9.78280003051811e-05
-9.78280003051811e-05
-0.00010333943694209268
-0.00011436231021591582
-0.0001226294651712832
-0.0001198737468528274
-0.00011436231021591582
-0.00010609515526054846
-0.00010058371862363688
-9.507228198672531e-05
-8.129369039444639e-05
-6.751509880216745e-05
-6.200366216525588e-05
-5.3736507209888505e-05
-4.5469352254521147e-05
-2.8935042343786426e-05
-9.64501411459592e-06
9.64501411459459e-06
2.066788738841773e-05
2.066788738841773e-05
2.066788738841773e-05
2.8935042343785094e-05
2.6179324025329308e-05
1.2400732433050376e-05
1.3778591592272275e-06
-1.240073243305171e-05
-2.066788738841907e-05
-2.342360570687485e-05
-3.169076066224221e-05
-4.8225070572976926e-05
-7.027081712062322e-05
-8.129369039444639e-05
-8.404940871290214e-05
-8.956084534981374e-05
-9.78280003051811e-05
-0.00010058371862363688
-0.00010058371862363688
-0.00010058371862363688
-0.00010609515526054846
-0.00010885087357900426
-0.0001171180285343716
-0.0001226294651712832
-0.00012814090180819475
-0.00014191949340047367
-0.0001612095216296642
-0.00013089662012665053
1.7912169069961946e-05
0.000301751155870908
0.0007123531853208202
0.0011505123979552907
0.0015280458075837332
0.0017237018081940941
0.0016162287937743183
0.0011477566796368347
0.0004974071564812689
-0.0002080567330434125
-0.0005139414663920051
-0.0004285141985198755
-0.0003320640573739229
-0.00027419397268635144
-0.00024388107118333775
-0.00021632388799877996
-0.00019152242313267784
-0.00017498811322194308
-0.00017498811322194308
-0.0001777438315403989
-0.0001777438315403989
-0.00017223239490348733
-0.00016396523994811996
-0.00015569808499275262
-0.00014743093003738526
-0.00014467521171892948
-0.0001391637750820179
-0.0001336523384451063
-0.00012814090180819475
-0.00012538518348973897
-0.00012538518348973897
-0.0001171180285343716
-0.00010885087357900426
-0.00010885087357900426
-0.00011160659189746003
-0.00010885087357900426
-0.00010609515526054846
-0.00010058371862363688
-9.78280003051811e-05
-0.00010058371862363688
-9.78280003051811e-05
-9.507228198672531e-05
-8.680512703135793e-05
-8.404940871290214e-05
-8.404940871290214e-05
-8.404940871290214e-05
-7.85379720759906e-05
-7.302653543907902e-05
-6.751509880216745e-05
-6.475938048371164e-05
-5.9247943846800084e-05
-5.3736507209888505e-05
-4.5469352254521147e-05
-4.2713633936065354e-05
-4.5469352254521147e-05
-4.8225070572976926e-05
-5.098078889143272e-05
-5.3736507209888505e-05
-5.6492225528344285e-05
-5.9247943846800084e-05
-5.6492225528344285e-05
-5.098078889143272e-05
-4.8225070572976926e-05
-4.5469352254521147e-05
-5.098078889143272e-05
-5.6492225528344285e-05
-6.200366216525588e-05
-7.027081712062322e-05
-7.85379720759906e-05
-8.680512703135793e-05
-9.231656366826955e-05
-0.00010058371862363688
-0.00010058371862363688
-0.00010333943694209268
-0.00010609515526054846
-0.00010885087357900426
-0.00011436231021591582
-0.00011160659189746003
-0.00010333943694209268
-9.507228198672531e-05
-8.404940871290214e-05
-7.57822537575348e-05
-6.475938048371164e-05
-5.3736507209888505e-05
-4.5469352254521147e-05
-3.995791561760957e-05
-2.6179324025330647e-05
-9.64501411459592e-06
6.8892957961388014e-06
2.066788738841773e-05
2.066788738841773e-05
2.066788738841773e-05
2.066788738841773e-05
2.066788738841773e-05
6.8892957961388014e-06
-6.889295796140132e-06
-2.066788738841907e-05
-2.6179324025330647e-05
-3.169076066224221e-05
-4.2713633936065354e-05
-6.200366216525588e-05
-8.129369039444639e-05
-8.956084534981374e-05
-9.231656366826955e-05
-9.231656366826955e-05
-9.78280003051811e-05
-0.00010333943694209268
-0.00010609515526054846
-0.00010885087357900426
-0.00010885087357900426
-0.00011436231021591582
-0.0001226294651712832
-0.0001364080567635621
-0.00014467521171892948
-0.000150186648355841
-0.00010333943694209268
5.373650720988717e-05
0.0003568655222400236
0.0007647118333714802
0.001169802426184481
0.0015060000610360867
0.0016520531319142435
0.001514267215991454
0.0010320165102616916
0.00038717842374303736
-0.00027419397268635144
-0.0005139414663920051
-0.00043402563515678713
-0.0003375754940108345
-0.0002824611276417188
-0.0002549039444571609
-0.00022459104295414727
-0.00020254529640650095
-0.00019427814145113364
-0.00018876670481422206
-0.00018325526817731047
-0.00018049954985885472
-0.0001777438315403989
-0.00018049954985885472
-0.00017223239490348733
-0.00016396523994811996
-0.0001584538033112084
-0.0001584538033112084
-0.0001584538033112084
-0.00015569808499275262
-0.000150186648355841
-0.00014191949340047367
-0.00014191949340047367
-0.00014467521171892948
-0.00014191949340047367
-0.00013089662012665053
-0.00012814090180819475
-0.00013089662012665053
-0.00013089662012665053
-0.00012814090180819475
-0.00012538518348973897
-0.00012814090180819475
-0.00012814090180819475
-0.0001336523384451063
-0.0001336523384451063
-0.00013089662012665053
-0.00013089662012665053
-0.00012814090180819475
-0.00012814090180819475
-0.0001226294651712832
-0.00011436231021591582
-0.00011160659189746003
-0.00010885087357900426
-0.00010609515526054846
-0.00010333943694209268
-0.00010058371862363688
-0.00010609515526054846
-0.00011160659189746003
-0.00011436231021591582
-0.00011436231021591582
-0.00011160659189746003
-0.00010885087357900426
-0.00010609515526054846
-0.00010333943694209268
-0.00010058371862363688
-9.507228198672531e-05
-9.507228198672531e-05
-9.78280003051811e-05
-0.00010333943694209268
-0.00010609515526054846
-0.00010609515526054846
-0.00010058371862363688
-0.00010333943694209268
-0.00011436231021591582
-0.0001226294651712832
-0.0001226294651712832
-0.0001198737468528274
-0.0001226294651712832
-0.00012538518348973897
-0.00012538518348973897
-0.0001198737468528274
-0.00010609515526054846
-9.231656366826955e-05
-8.956084534981374e-05
-8.680512703135793e-05
-7.85379720759906e-05
-6.200366216525588e-05
-4.5469352254521147e-05
-3.4446478980697995e-05
-2.8935042343786426e-05
-2.066788738841907e-05
-1.240073243305171e-05
-4.133577477684346e-06
-4.133577477684346e-06
-1.240073243305171e-05
-1.7912169069963278e-05
-2.342360570687485e-05
-2.6179324025330647e-05
-3.720219729915378e-05
-4.8225070572976926e-05
-5.9247943846800084e-05
-7.027081712062322e-05
-8.129369039444639e-05
-9.507228198672531e-05
-0.00010609515526054846
-0.00011160659189746003
-0.00011160659189746003
-0.00011160659189746003
-0.00011436231021591582
-0.00011436231021591582
-0.0001226294651712832
-0.0001226294651712832
-0.0001226294651712832
-0.00013089662012665053
-0.000150186648355841
-0.00014743093003738526
-8.680512703135793e-05
7.578225375753347e-05
0.00036788839551384685
0.0007564446784161128
0.0011477566796368347
0.0014756871595330732
0.001602450202182039
0.0014260842298008686
0.000908009185931181
0.0002549039444571596
-0.0003568655222400251
-0.0005194529030289164
-0.0004285141985198755
-0.0003430869306477461
-0.00029072828259708617
-0.0002549039444571609
-0.00021356816968032413
-0.00019427814145113364
-0.00019427814145113364
-0.00019152242313267784
-0.00018601098649576628
-0.00018049954985885472
-0.00017498811322194308
-0.00017498811322194308
-0.00017223239490348733
-0.00016672095826657574
-0.0001612095216296642
-0.00015294236667429682
-0.000150186648355841
-0.000150186648355841
-0.00014467521171892948
-0.00014191949340047367
-0.0001391637750820179
-0.0001364080567635621
-0.00014191949340047367
-0.00014191949340047367
-0.0001391637750820179
-0.0001336523384451063
-0.0001336523384451063
-0.0001364080567635621
-0.0001391637750820179
-0.0001364080567635621
-0.0001336523384451063
-0.0001336523384451063
-0.00014191949340047367
-0.00014743093003738526
-0.00014467521171892948
-0.00014191949340047367
-0.0001391637750820179
-0.0001364080567635621
-0.0001364080567635621
-0.0001336523384451063
-0.00012538518348973897
-0.0001171180285343716
-0.0001198737468528274
-0.00012538518348973897
-0.00012814090180819475
-0.00012538518348973897
-0.00012538518348973897
-0.00012538518348973897
-0.00012814090180819475
-0.0001226294651712832
-0.00010885087357900426
-0.00010058371862363688
-9.78280003051811e-05
-9.78280003051811e-05
-0.00010058371862363688
-9.507228198672531e-05
-9.78280003051811e-05
-0.00010333943694209268
-0.00010885087357900426
-0.00010885087357900426
-0.00010609515526054846
-0.00010333943694209268
-0.00010885087357900426
-0.0001171180285343716
-0.00011436231021591582
-0.00011160659189746003
-0.00010885087357900426
-0.00010885087357900426
-0.00010333943694209268
-9.231656366826955e-05
-8.129369039444639e-05
-6.751509880216745e-05
-5.9247943846800084e-05
-5.9247943846800084e-05
-5.098078889143272e-05
-3.169076066224221e-05
-1.240073243305171e-05
-1.377859159228559e-06
6.8892957961388014e-06
1.5156450751506162e-05
2.066788738841773e-05
2.066788738841773e-05
2.3423605706873515e-05
1.2400732433050376e-05
-1.377859159228559e-06
-4.133577477684346e-06
-6.889295796140132e-06
-1.7912169069963278e-05
-3.169076066224221e-05
-4.5469352254521147e-05
-5.6492225528344285e-05
-6.751509880216745e-05
-7.57822537575348e-05
-8.129369039444639e-05
-8.956084534981374e-05
-9.231656366826955e-05
-9.231656366826955e-05
-9.231656366826955e-05
-9.507228198672531e-05
-0.00010333943694209268
-0.00010885087357900426
-0.00011160659189746003
-0.00011436231021591582
-0.0001198737468528274
-0.0001226294651712832
-8.129369039444639e-05
7.853797207598924e-05
0.00035410980392156795
0.0007316432135500107
0.0011312223697260999
0.0014729314412146172
0.001630007385366597
0.0014839543144884403
0.0010099707637140451
0.0003485983672846564
-0.0003155297474631883
-0.0005304757763027395
-0.0004312699168383313
-0.0003293083390554673
-0.00026592681773098404
-0.00023561391622797047
-0.00020254529640650095
-0.00017498811322194308
-0.0001612095216296642
-0.00016396523994811996
-0.0001612095216296642
-0.00015294236667429682
-0.000150186648355841
-0.00014467521171892948
-0.0001391637750820179
-0.00013089662012665053
-0.00012538518348973897
-0.0001198737468528274
-0.00011436231021591582
-0.00011160659189746003
-0.00011160659189746003
-0.00010885087357900426
-0.00010058371862363688
-9.507228198672531e-05
-9.231656366826955e-05
-9.231656366826955e-05
-9.231656366826955e-05
-8.680512703135793e-05
-8.404940871290214e-05
-8.404940871290214e-05
-8.404940871290214e-05
-8.129369039444639e-05
-7.85379720759906e-05
-7.85379720759906e-05
-7.85379720759906e-05
-7.85379720759906e-05
-7.302653543907902e-05
-6.751509880216745e-05
-5.9247943846800084e-05
-5.098078889143272e-05
-4.2713633936065354e-05
-3.169076066224221e-05
-1.5156450751507488e-05
-4.133577477684346e-06
1.3778591592272275e-06
4.133577477683014e-06
4.133577477683014e-06
9.64501411459459e-06
1.5156450751506162e-05
1.7912169069961946e-05
1.2400732433050376e-05
6.8892957961388014e-06
4.133577477683014e-06
1.3778591592272275e-06
-9.64501411459592e-06
-2.342360570687485e-05
-3.995791561760957e-05
-5.098078889143272e-05
-5.9247943846800084e-05
-6.475938048371164e-05
-7.027081712062322e-05
-7.85379720759906e-05
-8.129369039444639e-05
-8.129369039444639e-05
-8.129369039444639e-05
-8.404940871290214e-05
-8.680512703135793e-05
-8.956084534981374e-05
-8.404940871290214e-05
-7.57822537575348e-05
-7.57822537575348e-05
-7.027081712062322e-05
-5.9247943846800084e-05
-4.8225070572976926e-05
-3.720219729915378e-05
-3.720219729915378e-05
-2.066788738841907e-05
-9.64501411459592e-06
4.133577477683014e-06
1.7912169069961946e-05
2.6179324025329308e-05
2.8935042343785094e-05
2.6179324025329308e-05
2.6179324025329308e-05
1.7912169069961946e-05
9.64501411459459e-06
-1.377859159228559e-06
-9.64501411459592e-06
-1.7912169069963278e-05
-2.6179324025330647e-05
-3.995791561760957e-05
-5.6492225528344285e-05
-7.302653543907902e-05
-7.85379720759906e-05
-7.85379720759906e-05
-8.404940871290214e-05
-8.956084534981374e-05
-9.231656366826955e-05
-8.956084534981374e-05
-8.956084534981374e-05
-9.507228198672531e-05
-0.00010333943694209268
-0.00011160659189746003
-0.0001171180285343716
-0.0001171180285343716
-0.0001226294651712832
-0.00010609515526054846
-9.64501411459592e-06
0.00019427814145113231
0.0005056743114366363
0.0009052534676127252
0.001285542595559624
0.0015500915541313794
0.0015748930189974813
0.0012497182574196988
0.0006407045090409697
-7.57822537575348e-05
-0.0005222086213473721
-0.0004946514381628143
-0.00037339983215075977
-0.00029072828259708617
-0.00023561391622797047
-0.0002080567330434125
-0.00018601098649576628
-0.00016672095826657574
-0.00015569808499275262
-0.00015569808499275262
-0.00015294236667429682
-0.00014743093003738526
-0.00014191949340047367
-0.0001364080567635621
-0.00012814090180819475
-0.00012538518348973897
-0.0001226294651712832
-0.00011436231021591582
-0.00010609515526054846
-0.00010333943694209268
-9.78280003051811e-05
-9.78280003051811e-05
-9.507228198672531e-05
-8.404940871290214e-05
-7.57822537575348e-05
-7.302653543907902e-05
-7.302653543907902e-05
-5.9247943846800084e-05
-5.3736507209888505e-05
-5.098078889143272e-05
-5.3736507209888505e-05
-5.098078889143272e-05
-4.2713633936065354e-05
-3.4446478980697995e-05
-2.8935042343786426e-05
-2.342360570687485e-05
-2.066788738841907e-05
-9.64501411459592e-06
6.8892957961388014e-06
2.8935042343785094e-05
4.546935225451981e-05
6.200366216525454e-05
7.853797207598924e-05
9.23165636682682e-05
0.00010333943694209132
0.00010885087357900291
0.00010609515526054714
0.00010333943694209132
0.00010058371862363556
9.507228198672396e-05
8.68051270313566e-05
7.578225375753347e-05
6.200366216525454e-05
4.546935225451981e-05
3.169076066224089e-05
1.5156450751506162e-05
-6.889295796140132e-06
-1.7912169069963278e-05
-2.342360570687485e-05
-3.169076066224221e-05
-3.995791561760957e-05
-4.8225070572976926e-05
-5.9247943846800084e-05
-5.6492225528344285e-05
-5.3736507209888505e-05
-5.9247943846800084e-05
-5.9247943846800084e-05
-5.9247943846800084e-05
-5.6492225528344285e-05
-5.3736507209888505e-05
-4.2713633936065354e-05
-3.720219729915378e-05
-3.169076066224221e-05
-2.6179324025330647e-05
-1.7912169069963278e-05
-1.5156450751507488e-05
-1.240073243305171e-05
-4.133577477684346e-06
9.64501411459459e-06
2.8935042343785094e-05
4.271363393606403e-05
4.546935225451981e-05
3.9957915617608246e-05
3.720219729915245e-05
3.169076066224089e-05
2.3423605706873515e-05
1.5156450751506162e-05
4.133577477683014e-06
-1.240073243305171e-05
-2.066788738841907e-05
-2.6179324025330647e-05
-4.2713633936065354e-05
-6.200366216525588e-05
-7.302653543907902e-05
-7.302653543907902e-05
-7.57822537575348e-05
-8.129369039444639e-05
-8.680512703135793e-05
-8.956084534981374e-05
-8.956084534981374e-05
-9.231656366826955e-05
-9.78280003051811e-05
-0.00010333943694209268
-0.00011160659189746003
-0.0001171180285343716
-0.0001226294651712832
-7.57822537575348e-05
7.853797207598924e-05
0.000340331212329289
0.0007123531853208202
0.001128466651407644
0.0014867100328068963
0.0016548088502326991
0.0014977329060807197
0.0009796578622110316
0.00029072828259708476
-0.0003596212405584808
-0.0005249643396658282
-0.00041197988860914084
-0.0003155297474631883
-0.0002521482261387052
-0.00021632388799877996
-0.00019152242313267784
-0.00017498811322194308
-0.00016947667658503157
-0.0001612095216296642
-0.00015569808499275262
-0.00015294236667429682
-0.000150186648355841
-0.00014467521171892948
-0.0001391637750820179
-0.0001336523384451063
-0.00012814090180819475
-0.00012538518348973897
-0.0001198737468528274
-0.00011160659189746003
-0.00010058371862363688
-0.00010058371862363688
-9.78280003051811e-05
-9.507228198672531e-05
-8.404940871290214e-05
-7.302653543907902e-05
-7.302653543907902e-05
-7.302653543907902e-05
-7.302653543907902e-05
-6.751509880216745e-05
-5.9247943846800084e-05
-5.3736507209888505e-05
-5.3736507209888505e-05
-5.6492225528344285e-05
-5.098078889143272e-05
-4.2713633936065354e-05
-3.995791561760957e-05
-3.169076066224221e-05
-2.6179324025330647e-05
-1.7912169069963278e-05
-1.377859159228559e-06
1.2400732433050376e-05
2.6179324025329308e-05
3.720219729915245e-05
5.098078889143139e-05
6.475938048371032e-05
7.30265354390777e-05
7.578225375753347e-05
7.02708171206219e-05
7.30265354390777e-05
7.30265354390777e-05
6.751509880216611e-05
5.373650720988717e-05
3.9957915617608246e-05
2.6179324025329308e-05
1.2400732433050376e-05
-1.377859159228559e-06
-1.7912169069963278e-05
-3.4446478980697995e-05
-4.5469352254521147e-05
-4.5469352254521147e-05
-5.098078889143272e-05
-5.9247943846800084e-05
-6.751509880216745e-05
-7.302653543907902e-05
-7.027081712062322e-05
-7.027081712062322e-05
-7.302653543907902e-05
-7.57822537575348e-05
-7.302653543907902e-05
-6.751509880216745e-05
-5.9247943846800084e-05
-5.098078889143272e-05
-4.5469352254521147e-05
-3.995791561760957e-05
-3.4446478980697995e-05
-2.8935042343786426e-05
-2.066788738841907e-05
-9.64501411459592e-06
6.8892957961388014e-06
2.066788738841773e-05
2.8935042343785094e-05
2.8935042343785094e-05
2.6179324025329308e-05
2.6179324025329308e-05
1.7912169069961946e-05
9.64501411459459e-06
6.8892957961388014e-06
-4.133577477684346e-06
-1.7912169069963278e-05
-2.8935042343786426e-05
-3.995791561760957e-05
-5.098078889143272e-05
-6.475938048371164e-05
-7.57822537575348e-05
-8.129369039444639e-05
-8.680512703135793e-05
-8.680512703135793e-05
-8.680512703135793e-05
-8.956084534981374e-05
-9.507228198672531e-05
-9.78280003051811e-05
-0.00010058371862363688
-0.00010058371862363688
-0.00011160659189746003
-0.00012538518348973897
-0.0001391637750820179
-0.00013089662012665053
-3.4446478980697995e-05
0.00017774383154039756
0.0005166971847104594
0.0009438335240711064
0.0013709698634317533
0.0016768545967803456
0.0017154346532387268
0.0013737255817502093
3.720219729915245e-05
-0.00045882710002288904
-0.00045882710002288904
-0.0003403312123292903
-0.00026592681773098404
-0.00022459104295414727
-0.00019703385976958942
-0.00017498811322194308
-0.00016396523994811996
-0.00016396523994811996
-0.0001612095216296642
-0.00015294236667429682
-0.000150186648355841
-0.00014743093003738526
-0.00014467521171892948
-0.0001364080567635621
-0.00012814090180819475
-0.00012538518348973897
-0.0001198737468528274
-0.00011436231021591582
-0.00010885087357900426
-0.00010609515526054846
-0.00010058371862363688
-9.507228198672531e-05
-9.507228198672531e-05
-8.956084534981374e-05
-8.680512703135793e-05
-8.129369039444639e-05
-7.85379720759906e-05
-8.129369039444639e-05
-7.85379720759906e-05
-7.027081712062322e-05
-6.751509880216745e-05
-6.200366216525588e-05
-6.475938048371164e-05
-6.751509880216745e-05
-6.475938048371164e-05
-5.3736507209888505e-05
-4.8225070572976926e-05
-4.8225070572976926e-05
-4.2713633936065354e-05
-3.4446478980697995e-05
-2.066788738841907e-05
-6.889295796140132e-06
-4.133577477684346e-06
-6.889295796140132e-06
-4.133577477684346e-06
4.133577477683014e-06
6.8892957961388014e-06
4.133577477683014e-06
4.133577477683014e-06
9.64501411459459e-06
1.7912169069961946e-05
2.066788738841773e-05
1.2400732433050376e-05
1.3778591592272275e-06
-6.889295796140132e-06
-1.7912169069963278e-05
-2.8935042343786426e-05
-3.995791561760957e-05
-5.6492225528344285e-05
-6.475938048371164e-05
-7.027081712062322e-05
-7.027081712062322e-05
-7.302653543907902e-05
-7.85379720759906e-05
-8.129369039444639e-05
-8.404940871290214e-05
-7.57822537575348e-05
-7.57822537575348e-05
-7.027081712062322e-05
-5.9247943846800084e-05
-4.8225070572976926e-05
-3.720219729915378e-05
-2.8935042343786426e-05
-2.342360570687485e-05
-1.7912169069963278e-05
-6.889295796140132e-06
9.64501411459459e-06
2.6179324025329308e-05
3.9957915617608246e-05
4.82250705729756e-05
5.098078889143139e-05
5.098078889143139e-05
5.098078889143139e-05
3.9957915617608246e-05
2.8935042343785094e-05
2.6179324025329308e-05
2.3423605706873515e-05
6.8892957961388014e-06
-6.889295796140132e-06
-2.066788738841907e-05
-3.4446478980697995e-05
-4.8225070572976926e-05
-5.9247943846800084e-05
-6.751509880216745e-05
-7.57822537575348e-05
-7.85379720759906e-05
-8.129369039444639e-05
-8.129369039444639e-05
-8.404940871290214e-05
-9.231656366826955e-05
-9.507228198672531e-05
-9.507228198672531e-05
-9.78280003051811e-05
-0.00011160659189746003
-0.00012814090180819475
-0.00014467521171892948
-0.00010609515526054846
4.82250705729756e-05
0.00033206405737392166
0.0007371546501869223
0.001180825299458304
0.0015776487373159373
0.0017788161745632097
0.0016465416952773319
0.0011450009613183788
0.00047536140993362247
-0.0002190796063172357
-0.0004781171282520797
-0.0003871784237430386
-0.00030175115587090934
-0.00024939250782024937
-0.00021632388799877996
-0.00018876670481422206
-0.00016672095826657574
-0.0001584538033112084
-0.0001612095216296642
-0.0001584538033112084
-0.00015294236667429682
-0.00014743093003738526
-0.00014467521171892948
-0.00014191949340047367
-0.0001364080567635621
-0.00012814090180819475
-0.0001226294651712832
-0.0001198737468528274
-0.0001171180285343716
-0.00011160659189746003
-0.00010058371862363688
-9.78280003051811e-05
-0.00010058371862363688
-9.78280003051811e-05
-9.231656366826955e-05
-8.680512703135793e-05
-8.404940871290214e-05
-8.129369039444639e-05
-8.129369039444639e-05
-7.85379720759906e-05
-7.027081712062322e-05
-7.027081712062322e-05
-7.027081712062322e-05
-7.027081712062322e-05
-6.475938048371164e-05
-5.9247943846800084e-05
-5.6492225528344285e-05
-4.8225070572976926e-05
-4.5469352254521147e-05
-3.995791561760957e-05
-2.8935042343786426e-05
-1.7912169069963278e-05
-9.64501411459592e-06
-1.5156450751507488e-05
-2.066788738841907e-05
-2.066788738841907e-05
-2.342360570687485e-05
-2.066788738841907e-05
-2.342360570687485e-05
-2.342360570687485e-05
-1.7912169069963278e-05
-1.240073243305171e-05
-1.240073243305171e-05
-2.066788738841907e-05
-2.8935042343786426e-05
-3.720219729915378e-05
-4.5469352254521147e-05
-5.9247943846800084e-05
-7.57822537575348e-05
-8.680512703135793e-05
-8.956084534981374e-05
-8.956084534981374e-05
-9.507228198672531e-05
-0.00010058371862363688
-0.00010609515526054846
-0.00011160659189746003
-0.00010885087357900426
-0.00010333943694209268
-9.78280003051811e-05
-9.507228198672531e-05
-8.404940871290214e-05
-7.027081712062322e-05
-5.6492225528344285e-05
-4.8225070572976926e-05
-4.5469352254521147e-05
-3.995791561760957e-05
-2.066788738841907e-05
1.3778591592272275e-06
1.5156450751506162e-05
2.8935042343785094e-05
3.444647898069667e-05
3.444647898069667e-05
3.9957915617608246e-05
3.9957915617608246e-05
3.169076066224089e-05
2.066788738841773e-05
6.8892957961388014e-06
-4.133577477684346e-06
-1.240073243305171e-05
-2.6179324025330647e-05
-4.5469352254521147e-05
-5.6492225528344285e-05
-6.475938048371164e-05
-6.751509880216745e-05
-7.57822537575348e-05
-7.85379720759906e-05
-7.57822537575348e-05
-7.57822537575348e-05
-7.85379720759906e-05
-8.680512703135793e-05
-9.231656366826955e-05
-9.507228198672531e-05
-9.78280003051811e-05
-0.00010885087357900426
-0.00012814090180819475
-0.00013089662012665053
-3.995791561760957e-05
0.00018049954985885336
0.0005387429312581057
0.000982413580529487
0.001423328511482413
0.0017429918364232845
0.001800861921110856
0.0014811985961699847
0.0008749405661097116
0.00015845380331120705
-0.00040095701533531767
-0.00043953707179369863
-0.0003320640573739229
-0.00026592681773098404
-0.00023010247959105888
-0.00020530101472495681
-0.0001777438315403989
-0.00016396523994811996
-0.0001612095216296642
-0.0001584538033112084
-0.00015569808499275262
-0.00015294236667429682
-0.00014191949340047367
-0.0001364080567635621
-0.0001364080567635621
-0.0001336523384451063
-0.00012538518348973897
-0.0001171180285343716
-0.00011436231021591582
-0.00011160659189746003
-0.00011160659189746003
-0.00011160659189746003
-0.00010609515526054846
-0.00010058371862363688
-9.507228198672531e-05
-9.231656366826955e-05
-9.231656366826955e-05
-8.129369039444639e-05
-7.85379720759906e-05
-7.57822537575348e-05
-8.129369039444639e-05
-7.85379720759906e-05
-7.027081712062322e-05
-6.475938048371164e-05
-6.475938048371164e-05
-6.751509880216745e-05
-6.751509880216745e-05
-6.200366216525588e-05
-5.098078889143272e-05
-4.8225070572976926e-05
-4.2713633936065354e-05
-3.169076066224221e-05
-2.342360570687485e-05
-2.066788738841907e-05
-2.066788738841907e-05
-2.8935042343786426e-05
-3.169076066224221e-05
-3.169076066224221e-05
-3.169076066224221e-05
-3.4446478980697995e-05
-3.169076066224221e-05
-2.6179324025330647e-05
-1.5156450751507488e-05
-1.7912169069963278e-05
-2.6179324025330647e-05
-3.4446478980697995e-05
-4.8225070572976926e-05
-5.6492225528344285e-05
-6.751509880216745e-05
-7.57822537575348e-05
-8.680512703135793e-05
-9.507228198672531e-05
-0.00010058371862363688
-0.00010058371862363688
-0.00010609515526054846
-0.00010885087357900426
-0.00011436231021591582
-0.00010885087357900426
-0.00010058371862363688
-9.507228198672531e-05
-8.956084534981374e-05
-7.85379720759906e-05
-6.475938048371164e-05
-4.5469352254521147e-05
-3.720219729915378e-05
-3.720219729915378e-05
-2.8935042343786426e-05
-9.64501411459592e-06
9.64501411459459e-06
2.8935042343785094e-05
3.720219729915245e-05
3.720219729915245e-05
4.271363393606403e-05
4.546935225451981e-05
3.9957915617608246e-05
2.6179324025329308e-05
1.2400732433050376e-05
4.133577477683014e-06
-1.377859159228559e-06
-9.64501411459592e-06
-2.066788738841907e-05
-3.995791561760957e-05
-5.6492225528344285e-05
-6.751509880216745e-05
-7.027081712062322e-05
-7.57822537575348e-05
-8.129369039444639e-05
-8.956084534981374e-05
-9.231656366826955e-05
-9.231656366826955e-05
-9.507228198672531e-05
-0.00010058371862363688
-0.00010609515526054846
-0.00011160659189746003
-0.0001171180285343716
-0.00013089662012665053
-0.0001171180285343716
3.169076066224089e-05
0.00032379690241855427
0.0007316432135500107
0.0011587795529106576
0.0015252900892652771
0.0017016560616464477
0.001580404455634393
0.001103665186541542
0.000456071381704432
-0.00023285819790951464
-0.0005084300297550932
-0.0004202470435645082
-0.00032379690241855563
-0.00027143825436789566
-0.00024388107118333775
-0.00021632388799877996
-0.00019152242313267784
-0.0001777438315403989
-0.0001777438315403989
-0.0001777438315403989
-0.0001777438315403989
-0.00016947667658503157
-0.0001612095216296642
-0.00015569808499275262
-0.00015294236667429682
-0.00015294236667429682
-0.000150186648355841
-0.00014191949340047367
-0.0001364080567635621
-0.00013089662012665053
-0.00013089662012665053
-0.00012538518348973897
-0.0001171180285343716
-0.00011436231021591582
-0.00011160659189746003
-0.00011436231021591582
-0.00011436231021591582
-0.00010609515526054846
-0.00010333943694209268
-0.00010333943694209268
-0.00010333943694209268
-0.00010333943694209268
-9.78280003051811e-05
-9.231656366826955e-05
-9.231656366826955e-05
-9.231656366826955e-05
-8.956084534981374e-05
-8.680512703135793e-05
-7.85379720759906e-05
-7.027081712062322e-05
-6.475938048371164e-05
-5.9247943846800084e-05
-5.098078889143272e-05
-4.5469352254521147e-05
-4.2713633936065354e-05
-4.8225070572976926e-05
-5.6492225528344285e-05
-5.9247943846800084e-05
-6.200366216525588e-05
-6.200366216525588e-05
-6.200366216525588e-05
-6.200366216525588e-05
-6.200366216525588e-05
-5.6492225528344285e-05
-5.3736507209888505e-05
-5.6492225528344285e-05
-6.475938048371164e-05
-7.302653543907902e-05
-8.129369039444639e-05
-9.231656366826955e-05
-0.00010058371862363688
-0.00010885087357900426
-0.00011160659189746003
-0.00011160659189746003
-0.0001171180285343716
-0.0001226294651712832
-0.00012814090180819475
-0.00012538518348973897
-0.0001198737468528274
-0.00011160659189746003
-0.00010333943694209268
-9.231656366826955e-05
-8.129369039444639e-05
-7.302653543907902e-05
-6.200366216525588e-05
-5.098078889143272e-05
-3.720219729915378e-05
-2.342360570687485e-05
-6.889295796140132e-06
1.3778591592272275e-06
4.133577477683014e-06
6.8892957961388014e-06
6.8892957961388014e-06
6.8892957961388014e-06
6.8892957961388014e-06
-6.889295796140132e-06
-1.240073243305171e-05
-2.342360570687485e-05
-3.169076066224221e-05
-3.995791561760957e-05
-5.098078889143272e-05
-7.027081712062322e-05
-8.956084534981374e-05
-9.507228198672531e-05
-9.78280003051811e-05
-0.00010058371862363688
-0.00010609515526054846
-0.00010885087357900426
-0.00011160659189746003
-0.00010609515526054846
-0.00010885087357900426
-0.00011436231021591582
-0.00012538518348973897
-0.0001336523384451063
-0.00014191949340047367
-0.000150186648355841
-0.00012538518348973897
-6.889295796140132e-06
0.0002576596627756154
0.0006434602273594254
0.0010540622568093376
0.0014205727931639574
0.0016217402304112296
0.0015666258640421142
0.0011587795529106576
0.0005442543678950173
-0.0001336523384451063
-0.000500162874799726
-0.0004560713817044334
-0.0003568655222400251
-0.0002962397192339978
-0.0002604153810940725
-0.00023285819790951464
-0.0002108124513618684
-0.00019703385976958942
-0.00019152242313267784
-0.00018325526817731047
-0.0001777438315403989
-0.00017223239490348733
-0.00016947667658503157
-0.00016396523994811996
-0.0001612095216296642
-0.0001584538033112084
-0.00015569808499275262
-0.00015294236667429682
-0.00014743093003738526
-0.00014467521171892948
-0.00014743093003738526
-0.00014743093003738526
-0.00014467521171892948
-0.0001336523384451063
-0.00013089662012665053
-0.0001336523384451063
-0.0001364080567635621
-0.0001391637750820179
-0.0001336523384451063
-0.00013089662012665053
-0.0001364080567635621
-0.0001391637750820179
-0.0001391637750820179
-0.0001364080567635621
-0.0001364080567635621
-0.0001364080567635621
-0.0001391637750820179
-0.0001364080567635621
-0.00013089662012665053
-0.0001198737468528274
-0.00011160659189746003
-0.00010609515526054846
-0.00010609515526054846
-0.00010609515526054846
-0.00010333943694209268
-0.00010885087357900426
-0.00011436231021591582
-0.0001171180285343716
-0.0001171180285343716
-0.0001171180285343716
-0.00010885087357900426
-0.00010609515526054846
-0.00010058371862363688
-9.78280003051811e-05
-9.507228198672531e-05
-9.507228198672531e-05
-9.78280003051811e-05
-0.00010333943694209268
-0.00010333943694209268
-0.00010058371862363688
-0.00010058371862363688
-0.00010333943694209268
-0.00010885087357900426
-0.0001171180285343716
-0.0001171180285343716
-0.0001198737468528274
-0.00012538518348973897
-0.00012538518348973897
-0.00012538518348973897
-0.0001171180285343716
-0.00010885087357900426
-9.507228198672531e-05
-8.404940871290214e-05
-7.85379720759906e-05
-6.751509880216745e-05
-5.6492225528344285e-05
-4.5469352254521147e-05
-2.066788738841907e-05
-6.889295796140132e-06
1.3778591592272275e-06
6.8892957961388014e-06
4.133577477683014e-06
-1.377859159228559e-06
-4.133577477684346e-06
-6.889295796140132e-06
-1.240073243305171e-05
-2.066788738841907e-05
-3.169076066224221e-05
-4.2713633936065354e-05
-4.8225070572976926e-05
-6.475938048371164e-05
-8.129369039444639e-05
-9.231656366826955e-05
-0.00010058371862363688
-0.00010333943694209268
-0.00010333943694209268
-0.00010885087357900426
-0.00011436231021591582
-0.0001198737468528274
-0.0001198737468528274
-0.0001198737468528274
-0.00012538518348973897
-0.0001364080567635621
-0.00014467521171892948
-0.00015294236667429682
-0.0001336523384451063
-3.995791561760957e-05
0.000172232394903486
0.0005056743114366363
0.0009052534676127252
0.0012882983138780798
0.0015445801174944675
0.0015556029907682909
0.001224916792553597
0.0006324373540856024
-3.4446478980697995e-05
-0.00048087284657053543
-0.00048362856488899143
-0.00037891126878767127
-0.00030726259250782084
-0.0002631710994125282
-0.00023010247959105888
-0.0001997895780880452
-0.00018601098649576628
-0.00018601098649576628
-0.00018049954985885472
-0.00017223239490348733
-0.00016947667658503157
-0.00016672095826657574
-0.00016396523994811996
-0.0001612095216296642
-0.00015294236667429682
-0.00014743093003738526
-0.00014467521171892948
-0.00014467521171892948
-0.00014191949340047367
-0.0001336523384451063
-0.00012814090180819475
-0.00012814090180819475
-0.00012538518348973897
-0.00013089662012665053
-0.00012814090180819475
-0.0001226294651712832
-0.0001226294651712832
-0.0001226294651712832
-0.0001226294651712832
-0.0001226294651712832
-0.0001198737468528274
-0.0001226294651712832
-0.00012538518348973897
-0.00012538518348973897
-0.0001226294651712832
-0.0001226294651712832
-0.00012538518348973897
-0.00012814090180819475
-0.0001198737468528274
-0.00010885087357900426
-0.00010333943694209268
-0.00010333943694209268
-0.00010885087357900426
-0.00010609515526054846
-0.00010333943694209268
-0.00010333943694209268
-0.00010333943694209268
-0.00010333943694209268
-9.507228198672531e-05
-8.404940871290214e-05
-7.302653543907902e-05
-7.027081712062322e-05
-7.302653543907902e-05
-7.57822537575348e-05
-7.85379720759906e-05
-8.129369039444639e-05
-8.680512703135793e-05
-9.507228198672531e-05
-9.78280003051811e-05
-0.00010058371862363688
-9.78280003051811e-05
-0.00010333943694209268
-0.00010885087357900426
-0.00011160659189746003
-0.00011160659189746003
-0.00011160659189746003
-0.00011160659189746003
-0.00011160659189746003
-0.00010885087357900426
-0.00010333943694209268
-8.680512703135793e-05
-7.302653543907902e-05
-6.200366216525588e-05
-5.3736507209888505e-05
-5.098078889143272e-05
-3.995791561760957e-05
-2.342360570687485e-05
-6.889295796140132e-06
1.3778591592272275e-06
6.8892957961388014e-06
1.7912169069961946e-05
2.6179324025329308e-05
2.8935042343785094e-05
2.3423605706873515e-05
9.64501411459459e-06
1.3778591592272275e-06
1.3778591592272275e-06
-6.889295796140132e-06
-2.066788738841907e-05
-3.720219729915378e-05
-4.8225070572976926e-05
-5.6492225528344285e-05
-6.751509880216745e-05
-7.85379720759906e-05
-8.680512703135793e-05
-9.507228198672531e-05
-9.507228198672531e-05
-9.507228198672531e-05
-9.78280003051811e-05
-0.00010333943694209268
-0.00010609515526054846
-0.00010885087357900426
-0.0001171180285343716
-0.00012538518348973897
-0.00013089662012665053
-9.507228198672531e-05
4.271363393606403e-05
0.00029623971923399637
0.0006462159456778814
0.0010430393835355147
0.001401282764934767
0.001607961638818951
0.001514267215991454
0.0010705965667200726
0.00042575848020141833
-0.0002521482261387052
-0.0005387429312581068
-0.00045882710002288904
-0.0003513540856031135
-0.0002824611276417188
-0.00023836963454642628
-0.00020254529640650095
-0.0001777438315403989
-0.00016672095826657574
-0.00016947667658503157
-0.00016672095826657574
-0.0001612095216296642
-0.00015569808499275262
-0.000150186648355841
-0.00014467521171892948
-0.00014191949340047367
-0.0001336523384451063
-0.00012814090180819475
-0.0001198737468528274
-0.0001198737468528274
-0.0001198737468528274
-0.00011160659189746003
-0.00010609515526054846
-0.00010333943694209268
-0.00010058371862363688
-0.00010058371862363688
-9.78280003051811e-05
-8.680512703135793e-05
-8.129369039444639e-05
-8.129369039444639e-05
-7.85379720759906e-05
-7.302653543907902e-05
-7.027081712062322e-05
-6.475938048371164e-05
-6.475938048371164e-05
-6.751509880216745e-05
-6.475938048371164e-05
-5.6492225528344285e-05
-4.5469352254521147e-05
-3.4446478980697995e-05
-2.6179324025330647e-05
-1.240073243305171e-05
6.8892957961388014e-06
2.3423605706873515e-05
3.444647898069667e-05
4.546935225451981e-05
4.82250705729756e-05
5.373650720988717e-05
5.9247943846798756e-05
5.9247943846798756e-05
5.373650720988717e-05
4.82250705729756e-05
4.271363393606403e-05
3.169076066224089e-05
1.2400732433050376e-05
-6.889295796140132e-06
-1.7912169069963278e-05
-2.8935042343786426e-05
-4.2713633936065354e-05
-5.098078889143272e-05
-5.9247943846800084e-05
-6.751509880216745e-05
-6.751509880216745e-05
-6.751509880216745e-05
-7.302653543907902e-05
-8.129369039444639e-05
-8.404940871290214e-05
-7.57822537575348e-05
-7.302653543907902e-05
-7.302653543907902e-05
-7.302653543907902e-05
-6.751509880216745e-05
-5.9247943846800084e-05
-4.8225070572976926e-05
-3.995791561760957e-05
-3.4446478980697995e-05
-3.720219729915378e-05
-2.8935042343786426e-05
-1.5156450751507488e-05
-4.133577477684346e-06
9.64501411459459e-06
2.066788738841773e-05
2.6179324025329308e-05
2.8935042343785094e-05
3.169076066224089e-05
2.6179324025329308e-05
1.2400732433050376e-05
4.133577477683014e-06
-1.377859159228559e-06
-1.5156450751507488e-05
-2.6179324025330647e-05
-3.995791561760957e-05
-5.3736507209888505e-05
-6.475938048371164e-05
-7.302653543907902e-05
-8.129369039444639e-05
-8.680512703135793e-05
-9.231656366826955e-05
-9.231656366826955e-05
-8.956084534981374e-05
-9.231656366826955e-05
-9.78280003051811e-05
-0.00010333943694209268
-0.00010333943694209268
-0.00010333943694209268
-0.00011160659189746003
-0.0001226294651712832
-0.00012538518348973897
-8.680512703135793e-05
5.649222552834297e-05
0.000301751155870908
0.0006489716639963371
0.001048550820172426
0.0014040384832532226
0.0015941830472266717
0.0014811985961699847
0.0010127264820325008
0.000340331212329289
-0.0005442543678950186
-0.00043678135347524285
-0.0003375754940108345
-0.00027419397268635144
-0.00023285819790951464
-0.00020254529640650095
-0.0001777438315403989
-0.00016947667658503157
-0.00016947667658503157
-0.00016947667658503157
-0.00016396523994811996
-0.00015569808499275262
-0.00014743093003738526
-0.00014467521171892948
-0.00014191949340047367
-0.0001364080567635621
-0.00012538518348973897
-0.0001171180285343716
-0.00011436231021591582
-0.00011436231021591582
-0.00010885087357900426
-9.78280003051811e-05
-9.231656366826955e-05
-8.956084534981374e-05
-8.680512703135793e-05
-8.404940871290214e-05
-7.302653543907902e-05
-6.751509880216745e-05
-6.751509880216745e-05
-6.475938048371164e-05
-5.9247943846800084e-05
-5.3736507209888505e-05
-4.5469352254521147e-05
-3.995791561760957e-05
-3.720219729915378e-05
-3.169076066224221e-05
-2.342360570687485e-05
-6.889295796140132e-06
6.8892957961388014e-06
2.3423605706873515e-05
3.444647898069667e-05
5.373650720988717e-05
7.578225375753347e-05
9.23165636682682e-05
9.782800030517979e-05
0.00010333943694209132
0.00010333943694209132
0.00010885087357900291
0.00010609515526054714
0.00010058371862363556
8.956084534981241e-05
8.129369039444505e-05
7.02708171206219e-05
5.373650720988717e-05
3.720219729915245e-05
2.066788738841773e-05
1.3778591592272275e-06
-1.240073243305171e-05
-2.6179324025330647e-05
-3.4446478980697995e-05
-4.5469352254521147e-05
-5.3736507209888505e-05
-5.9247943846800084e-05
-5.9247943846800084e-05
-6.475938048371164e-05
-7.302653543907902e-05
-7.85379720759906e-05
-7.57822537575348e-05
-7.302653543907902e-05
-7.302653543907902e-05
-7.302653543907902e-05
-6.751509880216745e-05
-5.3736507209888505e-05
-4.5469352254521147e-05
-4.5469352254521147e-05
-4.8225070572976926e-05
-4.5469352254521147e-05
-2.8935042343786426e-05
-1.240073243305171e-05
1.3778591592272275e-06
9.64501411459459e-06
1.2400732433050376e-05
1.2400732433050376e-05
1.5156450751506162e-05
6.8892957961388014e-06
-4.133577477684346e-06
-1.240073243305171e-05
-2.066788738841907e-05
-2.8935042343786426e-05
-3.995791561760957e-05
-5.6492225528344285e-05
-7.57822537575348e-05
-8.680512703135793e-05
-9.507228198672531e-05
-9.78280003051811e-05
-9.78280003051811e-05
-0.00010609515526054846
-0.00010609515526054846
-0.00010333943694209268
-0.00010058371862363688
-0.00010333943694209268
-0.00011160659189746003
-0.0001171180285343716
-0.0001226294651712832
-0.00013089662012665053
-0.00014191949340047367
-0.000150186648355841
-0.00010885087357900426
3.9957915617608246e-05
0.0002989954375524522
0.0006737731288624392
0.001089886594949263
0.001453641412985427
0.0016492974135957881
0.00151702293430991
0.0010154822003509568
0.0003348197756923775
-0.0003320640573739229
-0.0005332314946211955
-0.000423002761882964
-0.00032655262073701135
-0.00026592681773098404
-0.00023285819790951464
-0.00020530101472495681
-0.0001777438315403989
-0.00016672095826657574
-0.00016672095826657574
-0.00016672095826657574
-0.00016396523994811996
-0.00015294236667429682
-0.00014743093003738526
-0.00014467521171892948
-0.00014191949340047367
-0.0001364080567635621
-0.00012814090180819475
-0.00012538518348973897
-0.0001198737468528274
-0.00011160659189746003
-0.00010333943694209268
-9.507228198672531e-05
-9.231656366826955e-05
-8.956084534981374e-05
-8.956084534981374e-05
-8.404940871290214e-05
-8.129369039444639e-05
-7.85379720759906e-05
-7.57822537575348e-05
-7.302653543907902e-05
-6.475938048371164e-05
-5.6492225528344285e-05
-5.3736507209888505e-05
-5.3736507209888505e-05
-5.3736507209888505e-05
-5.098078889143272e-05
-3.720219729915378e-05
-2.8935042343786426e-05
-2.066788738841907e-05
-1.240073243305171e-05
4.133577477683014e-06
2.3423605706873515e-05
3.720219729915245e-05
4.546935225451981e-05
5.373650720988717e-05
5.649222552834297e-05
6.200366216525454e-05
6.751509880216611e-05
6.475938048371032e-05
6.475938048371032e-05
6.200366216525454e-05
5.373650720988717e-05
4.271363393606403e-05
2.6179324025329308e-05
6.8892957961388014e-06
-9.64501411459592e-06
-2.066788738841907e-05
-2.8935042343786426e-05
-3.720219729915378e-05
-4.8225070572976926e-05
-5.6492225528344285e-05
-6.200366216525588e-05
-6.200366216525588e-05
-6.200366216525588e-05
-6.475938048371164e-05
-6.751509880216745e-05
-7.302653543907902e-05
-7.027081712062322e-05
-6.751509880216745e-05
-6.751509880216745e-05
-5.9247943846800084e-05
-5.098078889143272e-05
-3.995791561760957e-05
-3.169076066224221e-05
-2.8935042343786426e-05
-2.8935042343786426e-05
-2.342360570687485e-05
-1.240073243305171e-05
6.8892957961388014e-06
2.3423605706873515e-05
2.8935042343785094e-05
2.8935042343785094e-05
2.8935042343785094e-05
3.169076066224089e-05
2.6179324025329308e-05
9.64501411459459e-06
1.3778591592272275e-06
-1.7912169069963278e-05
-2.6179324025330647e-05
-3.995791561760957e-05
-6.200366216525588e-05
-7.85379720759906e-05
-8.404940871290214e-05
-8.680512703135793e-05
-8.956084534981374e-05
-9.78280003051811e-05
-9.78280003051811e-05
-9.507228198672531e-05
-9.507228198672531e-05
-0.00010058371862363688
-0.00010609515526054846
-0.00010885087357900426
-0.00011436231021591582
-0.0001226294651712832
-0.0001391637750820179
-0.00015569808499275262
-0.0001198737468528274
3.169076066224089e-05
0.00031001831082627527
0.0007095974670023644
0.0011450009613183788
0.0015197786526283655
0.0016989003433279916
0.0015638701457236582
0.0010568179751277937
0.0003816669871061258
-0.00029348400091554195
-0.0005166971847104609
-0.00040922417029068495
-0.0003155297474631883
-0.0002604153810940725
-0.00023010247959105888
-0.0002080567330434125
-0.00018876670481422206
-0.00017498811322194308
-0.00017223239490348733
-0.00017498811322194308
-0.00016947667658503157
-0.0001612095216296642
-0.00015294236667429682
-0.000150186648355841
-0.00014743093003738526
-0.00014467521171892948
-0.0001364080567635621
-0.00012814090180819475
-0.0001226294651712832
-0.0001226294651712832
-0.0001198737468528274
-0.00011436231021591582
-0.00010609515526054846
-0.00010333943694209268
-0.00010333943694209268
-9.231656366826955e-05
-9.231656366826955e-05
-8.680512703135793e-05
-8.129369039444639e-05
-7.57822537575348e-05
-7.57822537575348e-05
-7.85379720759906e-05
-7.57822537575348e-05
-7.027081712062322e-05
-6.751509880216745e-05
-6.200366216525588e-05
-6.200366216525588e-05
-5.3736507209888505e-05
-3.720219729915378e-05
-3.169076066224221e-05
-2.342360570687485e-05
-1.240073243305171e-05
-1.377859159228559e-06
4.133577477683014e-06
4.133577477683014e-06
4.133577477683014e-06
9.64501411459459e-06
1.2400732433050376e-05
1.5156450751506162e-05
1.5156450751506162e-05
1.2400732433050376e-05
9.64501411459459e-06
6.8892957961388014e-06
-6.889295796140132e-06
-2.066788738841907e-05
-3.720219729915378e-05
-5.098078889143272e-05
-5.9247943846800084e-05
-6.751509880216745e-05
-7.57822537575348e-05
-8.404940871290214e-05
-8.680512703135793e-05
-8.956084534981374e-05
-8.956084534981374e-05
-9.231656366826955e-05
-9.78280003051811e-05
-0.00010058371862363688
-9.507228198672531e-05
-8.680512703135793e-05
-8.129369039444639e-05
-7.57822537575348e-05
-6.751509880216745e-05
-5.6492225528344285e-05
-4.8225070572976926e-05
-3.720219729915378e-05
-3.4446478980697995e-05
-2.8935042343786426e-05
-9.64501411459592e-06
6.8892957961388014e-06
2.3423605706873515e-05
2.8935042343785094e-05
2.8935042343785094e-05
2.3423605706873515e-05
2.6179324025329308e-05
2.3423605706873515e-05
1.5156450751506162e-05
6.8892957961388014e-06
-6.889295796140132e-06
-1.5156450751507488e-05
-1.7912169069963278e-05
-2.8935042343786426e-05
-4.5469352254521147e-05
-6.475938048371164e-05
-7.57822537575348e-05
-7.57822537575348e-05
-7.85379720759906e-05
-8.129369039444639e-05
-8.680512703135793e-05
-8.680512703135793e-05
-8.680512703135793e-05
-9.231656366826955e-05
-9.78280003051811e-05
-0.00010058371862363688
-0.00010609515526054846
-0.00011436231021591582
-0.00013089662012665053
-0.000150186648355841
5.373650720988717e-05
0.00035410980392156795
0.0007702232700083917
0.0012194053559166852
0.0015914273289082165
0.0017650375829709308
0.0016107173571374067
0.0010926423132677188
0.00041473560692759526
-0.00026592681773098404
-0.00048638428320744705
-0.0003844227054245829
-0.0002962397192339978
-0.00024939250782024937
-0.00022459104295414727
-0.00020254529640650095
-0.00018325526817731047
-0.00017223239490348733
-0.00016947667658503157
-0.00016947667658503157
-0.0001612095216296642
-0.0001584538033112084
-0.00014743093003738526
-0.00014191949340047367
-0.00014191949340047367
-0.00014191949340047367
-0.0001391637750820179
-0.00013089662012665053
-0.0001226294651712832
-0.0001171180285343716
-0.0001171180285343716
-0.00011436231021591582
-0.00010885087357900426
-0.00010609515526054846
-0.00010333943694209268
-9.78280003051811e-05
-9.78280003051811e-05
-9.231656366826955e-05
-8.680512703135793e-05
-8.404940871290214e-05
-8.129369039444639e-05
-8.129369039444639e-05
-8.129369039444639e-05
-7.57822537575348e-05
-7.027081712062322e-05
-6.751509880216745e-05
-6.751509880216745e-05
-6.200366216525588e-05
-5.098078889143272e-05
-4.5469352254521147e-05
-3.995791561760957e-05
-2.8935042343786426e-05
-2.066788738841907e-05
-1.5156450751507488e-05
-9.64501411459592e-06
-1.5156450751507488e-05
-2.066788738841907e-05
-2.066788738841907e-05
-1.7912169069963278e-05
-1.240073243305171e-05
-9.64501411459592e-06
-9.64501411459592e-06
-6.889295796140132e-06
-4.133577477684346e-06
-9.64501411459592e-06
-2.066788738841907e-05
-3.4446478980697995e-05
-5.098078889143272e-05
-6.475938048371164e-05
-7.027081712062322e-05
-8.129369039444639e-05
-8.956084534981374e-05
-9.231656366826955e-05
-9.507228198672531e-05
-9.507228198672531e-05
-9.507228198672531e-05
-9.78280003051811e-05
-9.507228198672531e-05
-8.956084534981374e-05
-8.129369039444639e-05
-7.302653543907902e-05
-6.200366216525588e-05
-5.098078889143272e-05
-3.995791561760957e-05
-2.8935042343786426e-05
-2.342360570687485e-05
-1.5156450751507488e-05
1.3778591592272275e-06
2.066788738841773e-05
3.720219729915245e-05
4.271363393606403e-05
4.271363393606403e-05
3.9957915617608246e-05
4.271363393606403e-05
3.444647898069667e-05
2.3423605706873515e-05
1.5156450751506162e-05
4.133577477683014e-06
-6.889295796140132e-06
-1.240073243305171e-05
-2.6179324025330647e-05
-4.5469352254521147e-05
-6.475938048371164e-05
-7.302653543907902e-05
-7.57822537575348e-05
-7.85379720759906e-05
-8.129369039444639e-05
-8.956084534981374e-05
-9.507228198672531e-05
-9.507228198672531e-05
-9.231656366826955e-05
-9.78280003051811e-05
-0.00010609515526054846
-0.00011436231021591582
-0.0001226294651712832
-0.0001364080567635621
-0.00015569808499275262
-0.00010885087357900426
6.751509880216611e-05
0.0003816669871061258
0.0008032918898298613
0.0012524739757381546
0.001618984512092774
0.0017705490196078426
0.0015776487373159373
0.0010430393835355147
0.00036788839551384685
-0.0002962397192339978
-0.00048362856488899143
-0.00037891126878767127
-0.00029348400091554195
-0.0002466367895017936
-0.0002218353246356915
-0.00019703385976958942
-0.00018049954985885472
-0.00017223239490348733
-0.00016672095826657574
-0.00016672095826657574
-0.00016396523994811996
-0.00015569808499275262
-0.00014743093003738526
-0.00014191949340047367
-0.0001391637750820179
-0.0001364080567635621
-0.00013089662012665053
-0.00012538518348973897
-0.0001198737468528274
-0.0001171180285343716
-0.0001171180285343716
-0.00011160659189746003
-0.00010058371862363688
-9.507228198672531e-05
-9.507228198672531e-05
-9.231656366826955e-05
-8.680512703135793e-05
-8.129369039444639e-05
-7.57822537575348e-05
-7.57822537575348e-05
-8.129369039444639e-05
-8.129369039444639e-05
-7.027081712062322e-05
-6.475938048371164e-05
-6.200366216525588e-05
-6.200366216525588e-05
-5.6492225528344285e-05
-5.098078889143272e-05
-4.2713633936065354e-05
-2.8935042343786426e-05
-2.066788738841907e-05
-1.5156450751507488e-05
-1.240073243305171e-05
-6.889295796140132e-06
-9.64501411459592e-06
-2.066788738841907e-05
-2.342360570687485e-05
-2.342360570687485e-05
-2.066788738841907e-05
-1.7912169069963278e-05
-1.7912169069963278e-05
-2.066788738841907e-05
-2.342360570687485e-05
-2.6179324025330647e-05
-3.4446478980697995e-05
-4.8225070572976926e-05
-6.751509880216745e-05
-7.57822537575348e-05
-8.404940871290214e-05
-8.956084534981374e-05
-0.00010058371862363688
-0.00011160659189746003
-0.00011160659189746003
-0.00011160659189746003
-0.00011160659189746003
-0.00011436231021591582
-0.0001198737468528274
-0.0001226294651712832
-0.0001171180285343716
-9.78280003051811e-05
-8.129369039444639e-05
-7.57822537575348e-05
-6.751509880216745e-05
-5.6492225528344285e-05
-4.5469352254521147e-05
-3.4446478980697995e-05
-6.889295796140132e-06
4.133577477683014e-06
1.7912169069961946e-05
2.3423605706873515e-05
2.6179324025329308e-05
2.3423605706873515e-05
2.066788738841773e-05
1.5156450751506162e-05
6.8892957961388014e-06
-1.377859159228559e-06
-1.5156450751507488e-05
-2.342360570687485e-05
-2.6179324025330647e-05
-3.995791561760957e-05
-5.9247943846800084e-05
-7.85379720759906e-05
-8.956084534981374e-05
-9.231656366826955e-05
-9.231656366826955e-05
-9.507228198672531e-05
-9.78280003051811e-05
-0.00010333943694209268
-0.00010885087357900426
-0.00010609515526054846
-0.00010609515526054846
-0.00011436231021591582
-0.00012538518348973897
-0.0001364080567635621
-0.00014743093003738526
-0.00014743093003738526
-6.751509880216745e-05
0.00013916377508201656
0.0004891400015259016
0.0009162763408865484
0.001321366933699549
0.0016134730754558623
0.0016740988784618896
0.0014040384832532226
0.0008336047913328749
0.00015294236667429551
-0.00041197988860914084
-0.00048638428320744705
-0.0003816669871061273
-0.00030175115587090934
-0.00025765966277561676
-0.00022734676127260308
-0.00020254529640650095
-0.00018601098649576628
-0.00018049954985885472
-0.0001777438315403989
-0.00017498811322194308
-0.00017223239490348733
-0.00016672095826657574
-0.0001584538033112084
-0.000150186648355841
-0.00014743093003738526
-0.00014743093003738526
-0.00014467521171892948
-0.00014191949340047367
-0.0001364080567635621
-0.00012814090180819475
-0.00012814090180819475
-0.00012814090180819475
-0.0001226294651712832
-0.0001198737468528274
-0.00011436231021591582
-0.00011436231021591582
-0.0001198737468528274
-0.0001198737468528274
-0.00010333943694209268
-0.00010333943694209268
-0.00010609515526054846
-0.00010609515526054846
-0.00010058371862363688
-9.78280003051811e-05
-0.00010058371862363688
-0.00010058371862363688
-0.00010058371862363688
-9.507228198672531e-05
-8.404940871290214e-05
-7.57822537575348e-05
-7.027081712062322e-05
-7.027081712062322e-05
-6.751509880216745e-05
-6.475938048371164e-05
-6.475938048371164e-05
-7.027081712062322e-05
-7.57822537575348e-05
-7.85379720759906e-05
-7.302653543907902e-05
-7.027081712062322e-05
-6.751509880216745e-05
-6.475938048371164e-05
-6.475938048371164e-05
-6.475938048371164e-05
-6.200366216525588e-05
-6.751509880216745e-05
-7.57822537575348e-05
-8.680512703135793e-05
-9.231656366826955e-05
-9.231656366826955e-05
-9.78280003051811e-05
-0.00010885087357900426
-0.00011436231021591582
-0.0001171180285343716
-0.0001171180285343716
-0.0001198737468528274
-0.0001198737468528274
-0.0001226294651712832
-0.0001198737468528274
-0.00010885087357900426
-9.507228198672531e-05
-8.129369039444639e-05
-7.302653543907902e-05
-6.751509880216745e-05
-5.6492225528344285e-05
-3.720219729915378e-05
-2.066788738841907e-05
-1.240073243305171e-05
-1.377859159228559e-06
9.64501411459459e-06
1.7912169069961946e-05
1.7912169069961946e-05
1.7912169069961946e-05
1.5156450751506162e-05
6.8892957961388014e-06
1.3778591592272275e-06
-6.889295796140132e-06
-2.066788738841907e-05
-3.4446478980697995e-05
-4.2713633936065354e-05
-5.3736507209888505e-05
-6.751509880216745e-05
-8.404940871290214e-05
-9.507228198672531e-05
-0.00010058371862363688
-0.00010058371862363688
-0.00010609515526054846
-0.00011160659189746003
-0.00011436231021591582
-0.00011436231021591582
-0.0001171180285343716
-0.00012538518348973897
-0.0001391637750820179
-0.00015294236667429682
-0.00015569808499275262
-0.00011436231021591582
2.6179324025329308e-05
0.00030450687418936376
0.0006903074387731741
0.0010926423132677188
0.0014343513847562366
0.0015996944838635836
0.0014839543144884403
0.0010209936369878683
0.000392689860379949
-0.00025765966277561676
-0.0005166971847104609
-0.00043953707179369863
-0.00035410980392156926
-0.0002962397192339978
-0.00025765966277561676
-0.00022459104295414727
-0.00020254529640650095
-0.00019427814145113364
-0.00019152242313267784
-0.00018325526817731047
-0.0001777438315403989
-0.00017498811322194308
-0.00017498811322194308
-0.00017223239490348733
-0.00016672095826657574
-0.0001584538033112084
-0.00015294236667429682
-0.000150186648355841
-0.00014467521171892948
-0.0001391637750820179
-0.0001391637750820179
-0.0001364080567635621
-0.0001364080567635621
-0.0001364080567635621
-0.0001364080567635621
-0.00012814090180819475
-0.00012814090180819475
-0.00013089662012665053
-0.00013089662012665053
-0.00012814090180819475
-0.00012538518348973897
-0.0001226294651712832
-0.0001226294651712832
-0.00012538518348973897
-0.00012538518348973897
-0.00012538518348973897
-0.0001226294651712832
-0.0001198737468528274
-0.0001198737468528274
-0.0001171180285343716
-0.00010885087357900426
-0.00010058371862363688
-9.231656366826955e-05
-9.231656366826955e-05
-9.231656366826955e-05
-9.507228198672531e-05
-9.78280003051811e-05
-9.78280003051811e-05
-0.00010609515526054846
-0.00010333943694209268
-9.231656366826955e-05
-8.956084534981374e-05
-8.680512703135793e-05
-8.404940871290214e-05
-8.404940871290214e-05
-8.404940871290214e-05
-8.956084534981374e-05
-9.507228198672531e-05
-0.00010058371862363688
-0.00010333943694209268
-0.00010058371862363688
-0.00010058371862363688
-0.00010885087357900426
-0.0001171180285343716
-0.0001171180285343716
-0.0001198737468528274
-0.0001198737468528274
-0.0001226294651712832
-0.00012538518348973897
-0.0001198737468528274
-0.00010333943694209268
-8.680512703135793e-05
-7.85379720759906e-05
-7.302653543907902e-05
-7.027081712062322e-05
-5.6492225528344285e-05
-4.2713633936065354e-05
-2.8935042343786426e-05
-1.7912169069963278e-05
-6.889295796140132e-06
1.3778591592272275e-06
9.64501411459459e-06
1.2400732433050376e-05
1.5156450751506162e-05
6.8892957961388014e-06
-4.133577477684346e-06
-9.64501411459592e-06
-1.7912169069963278e-05
-2.8935042343786426e-05
-3.995791561760957e-05
-4.8225070572976926e-05
-5.9247943846800084e-05
-7.57822537575348e-05
-8.680512703135793e-05
-9.231656366826955e-05
-9.78280003051811e-05
-0.00010058371862363688
-0.00010058371862363688
-0.00010333943694209268
-0.00010609515526054846
-0.00010885087357900426
-0.00010609515526054846
-0.00011160659189746003
-0.0001226294651712832
-0.00013089662012665053
-0.0001364080567635621
-0.00013089662012665053
-5.3736507209888505e-05
0.00013089662012664922
0.0004422927901121532
0.0008308490730144192
0.0012276725108720525
0.0015418243991760121
0.0016327631036850527
0.0013819927367055766
0.0008225819180590517
-0.00040095701533531767
-0.0004781171282520797
-0.00037615555046921565
-0.0002962397192339978
-0.0002521482261387052
-0.0002190796063172357
-0.00018876670481422206
-0.00017223239490348733
-0.00017223239490348733
-0.00016947667658503157
-0.00016396523994811996
-0.0001584538033112084
-0.00015569808499275262
-0.000150186648355841
-0.00014467521171892948
-0.0001391637750820179
-0.00013089662012665053
-0.00012538518348973897
-0.0001226294651712832
-0.00012538518348973897
-0.0001198737468528274
-0.00011160659189746003
-0.00011160659189746003
-0.00011436231021591582
-0.00011160659189746003
-0.00010885087357900426
-0.00010609515526054846
-0.00010058371862363688
-0.00010058371862363688
-0.00010609515526054846
-0.00010885087357900426
-0.00010609515526054846
-9.78280003051811e-05
-0.00010058371862363688
-0.00010333943694209268
-0.00010609515526054846
-0.00010333943694209268
-9.78280003051811e-05
-9.78280003051811e-05
-9.507228198672531e-05
-9.231656366826955e-05
-8.680512703135793e-05
-7.85379720759906e-05
-7.302653543907902e-05
-7.57822537575348e-05
-7.57822537575348e-05
-7.302653543907902e-05
-6.475938048371164e-05
-5.9247943846800084e-05
-5.3736507209888505e-05
-5.098078889143272e-05
-4.5469352254521147e-05
-3.720219729915378e-05
-3.169076066224221e-05
-3.4446478980697995e-05
-4.2713633936065354e-05
-5.3736507209888505e-05
-5.9247943846800084e-05
-6.200366216525588e-05
-6.751509880216745e-05
-7.302653543907902e-05
-7.57822537575348e-05
-8.129369039444639e-05
-8.129369039444639e-05
-8.404940871290214e-05
-8.680512703135793e-05
-8.956084534981374e-05
-8.404940871290214e-05
-8.129369039444639e-05
-7.85379720759906e-05
-7.57822537575348e-05
-6.475938048371164e-05
-4.8225070572976926e-05
-3.720219729915378e-05
-3.169076066224221e-05
-2.8935042343786426e-05
-2.342360570687485e-05
-9.64501411459592e-06
6.8892957961388014e-06
1.7912169069961946e-05
2.6179324025329308e-05
3.720219729915245e-05
4.82250705729756e-05
4.82250705729756e-05
4.546935225451981e-05
3.720219729915245e-05
2.3423605706873515e-05
1.7912169069961946e-05
1.5156450751506162e-05
4.133577477683014e-06
-6.889295796140132e-06
-2.066788738841907e-05
-3.720219729915378e-05
-4.8225070572976926e-05
-5.6492225528344285e-05
-6.475938048371164e-05
-7.027081712062322e-05
-7.027081712062322e-05
-6.751509880216745e-05
-6.751509880216745e-05
-7.302653543907902e-05
-8.129369039444639e-05
-8.404940871290214e-05
-8.404940871290214e-05
-8.956084534981374e-05
-9.78280003051811e-05
-0.00010333943694209268
-9.78280003051811e-05
-3.720219729915378e-05
0.00013089662012664922
0.0004064684519722279
0.0007729789883268476
0.0011615352712291134
0.0014756871595330732
0.0015996944838635836
0.0014040384832532226
0.0008776962844281674
0.00019152242313267648
-0.00041197988860914084
-0.0005249643396658282
-0.00040371273365377345
-0.0003045068741893651
-0.00024112535286488197
-0.0001997895780880452
-0.00016672095826657574
-0.00014467521171892948
-0.0001391637750820179
-0.00014191949340047367
-0.00014191949340047367
-0.0001364080567635621
-0.00012814090180819475
-0.0001226294651712832
-0.0001171180285343716
-0.00011436231021591582
-0.00010609515526054846
-9.78280003051811e-05
-8.956084534981374e-05
-8.404940871290214e-05
-7.57822537575348e-05
-6.475938048371164e-05
-5.9247943846800084e-05
-5.6492225528344285e-05
-5.6492225528344285e-05
-5.098078889143272e-05
-4.2713633936065354e-05
-3.720219729915378e-05
-3.995791561760957e-05
-3.995791561760957e-05
-3.4446478980697995e-05
-2.6179324025330647e-05
-1.7912169069963278e-05
-1.240073243305171e-05
-1.5156450751507488e-05
-4.133577477684346e-06
1.5156450751506162e-05
2.8935042343785094e-05
4.271363393606403e-05
5.373650720988717e-05
7.578225375753347e-05
9.782800030517979e-05
0.00011436231021591448
0.00012262946517128183
0.00013089662012664922
0.00013089662012664922
0.00013089662012664922
0.00013089662012664922
0.00012814090180819342
0.00012262946517128183
0.00011160659189745871
0.00010333943694209132
9.507228198672396e-05
7.853797207598924e-05
5.649222552834297e-05
3.720219729915245e-05
2.066788738841773e-05
9.64501411459459e-06
-4.133577477684346e-06
-1.5156450751507488e-05
-2.6179324025330647e-05
-3.169076066224221e-05
-3.169076066224221e-05
-3.4446478980697995e-05
-3.995791561760957e-05
-4.5469352254521147e-05
-4.8225070572976926e-05
-4.8225070572976926e-05
-4.5469352254521147e-05
-4.5469352254521147e-05
-4.5469352254521147e-05
-4.2713633936065354e-05
-3.169076066224221e-05
-2.342360570687485e-05
-1.5156450751507488e-05
-9.64501411459592e-06
-1.240073243305171e-05
-9.64501411459592e-06
1.3778591592272275e-06
1.2400732433050376e-05
2.6179324025329308e-05
3.720219729915245e-05
4.271363393606403e-05
5.098078889143139e-05
5.373650720988717e-05
4.271363393606403e-05
3.444647898069667e-05
1.7912169069961946e-05
6.8892957961388014e-06
-9.64501411459592e-06
-2.066788738841907e-05
-3.4446478980697995e-05
-4.5469352254521147e-05
-5.3736507209888505e-05
-5.6492225528344285e-05
-6.200366216525588e-05
-6.751509880216745e-05
-6.475938048371164e-05
-6.475938048371164e-05
-7.027081712062322e-05
-7.57822537575348e-05
-7.85379720759906e-05
-8.129369039444639e-05
-7.85379720759906e-05
-8.680512703135793e-05
-9.507228198672531e-05
-0.00010058371862363688
-7.302653543907902e-05
5.373650720988717e-05
0.0002852168459601733
0.0006186587624933234
0.0010154822003509568
0.0013875041733424878
0.0016162287937743183
0.0015638701457236582
0.0011422452429999228
0.0004891400015259016
-0.0002080567330434125
-0.0005084300297550932
-0.0004257584802014197
-0.0003155297474631883
-0.0002466367895017936
-0.0001997895780880452
-0.00016947667658503157
-0.00014191949340047367
-0.00013089662012665053
-0.0001336523384451063
-0.0001364080567635621
-0.00013089662012665053
-0.00012538518348973897
-0.0001198737468528274
-0.00011436231021591582
-0.00011160659189746003
-0.00010885087357900426
-0.00010058371862363688
-9.507228198672531e-05
-8.680512703135793e-05
-8.404940871290214e-05
-7.85379720759906e-05
-6.751509880216745e-05
-6.200366216525588e-05
-5.9247943846800084e-05
-5.6492225528344285e-05
-5.3736507209888505e-05
-4.8225070572976926e-05
-3.720219729915378e-05
-3.4446478980697995e-05
-3.169076066224221e-05
-2.6179324025330647e-05
-2.066788738841907e-05
-1.5156450751507488e-05
-1.240073243305171e-05
-9.64501411459592e-06
-4.133577477684346e-06
9.64501411459459e-06
2.3423605706873515e-05
5.373650720988717e-05
7.30265354390777e-05
9.507228198672396e-05
0.00011436231021591448
0.00012814090180819342
0.00013640805676356078
0.00014743093003738393
0.0001556980849927513
0.0001556980849927513
0.00015294236667429551
0.00015018664835583973
0.00014191949340047234
0.00013365233844510492
0.0001253851834897376
0.00011160659189745871
9.23165636682682e-05
7.30265354390777e-05
5.098078889143139e-05
3.9957915617608246e-05
2.8935042343785094e-05
1.5156450751506162e-05
1.3778591592272275e-06
-4.133577477684346e-06
-6.889295796140132e-06
-1.240073243305171e-05
-1.5156450751507488e-05
-2.342360570687485e-05
-2.6179324025330647e-05
-2.6179324025330647e-05
-2.6179324025330647e-05
-2.6179324025330647e-05
-2.8935042343786426e-05
-2.8935042343786426e-05
-2.066788738841907e-05
-1.240073243305171e-05
-6.889295796140132e-06
-6.889295796140132e-06
-4.133577477684346e-06
-1.377859159228559e-06
9.64501411459459e-06
2.066788738841773e-05
3.169076066224089e-05
4.546935225451981e-05
5.373650720988717e-05
5.649222552834297e-05
6.200366216525454e-05
5.649222552834297e-05
4.82250705729756e-05
3.720219729915245e-05
3.169076066224089e-05
2.6179324025329308e-05
1.2400732433050376e-05
-1.377859159228559e-06
-1.7912169069963278e-05
-3.169076066224221e-05
-4.5469352254521147e-05
-5.098078889143272e-05
-5.3736507209888505e-05
-5.9247943846800084e-05
-6.475938048371164e-05
-6.475938048371164e-05
-6.475938048371164e-05
-6.751509880216745e-05
-7.57822537575348e-05
-7.85379720759906e-05
-7.85379720759906e-05
-8.404940871290214e-05
-9.78280003051811e-05
-0.0001171180285343716
-5.3736507209888505e-05
0.00011436231021591448
0.0003954455786984048
0.0007840018616006707
0.0012028710460059502
0.0015528472724498353
0.0016906331883726243
0.0014839543144884403
0.0009328106507972832
0.00024112535286488067
-0.00036788839551384826
-0.0004781171282520797
-0.0003596212405584808
-0.00027694969100480727
-0.00022459104295414727
-0.00019152242313267784
-0.00016672095826657574
-0.00014743093003738526
-0.00014743093003738526
-0.00014743093003738526
-0.00014467521171892948
-0.0001336523384451063
-0.00012538518348973897
-0.0001226294651712832
-0.0001198737468528274
-0.0001198737468528274
