-3.720219729915378e-05
-3.169076066224221e-05
-3.169076066224221e-05
-3.995791561760957e-05
-3.995791561760957e-05
-3.4446478980697995e-05
-2.8935042343786426e-05
-2.6179324025330647e-05
-3.4446478980697995e-05
-3.995791561760957e-05
-3.995791561760957e-05
-2.8935042343786426e-05
-2.342360570687485e-05
-3.169076066224221e-05
-4.2713633936065354e-05
-4.2713633936065354e-05
-3.4446478980697995e-05
-2.8935042343786426e-05
-3.720219729915378e-05
-5.098078889143272e-05
-5.098078889143272e-05
-4.2713633936065354e-05
-4.5469352254521147e-05
-5.6492225528344285e-05
-5.6492225528344285e-05
-4.8225070572976926e-05
-4.5469352254521147e-05
-4.8225070572976926e-05
-5.6492225528344285e-05
-5.9247943846800084e-05
-5.6492225528344285e-05
-4.8225070572976926e-05
-5.098078889143272e-05
-5.9247943846800084e-05
-6.200366216525588e-05
-6.200366216525588e-05
-5.3736507209888505e-05
-5.098078889143272e-05
-5.9247943846800084e-05
-6.751509880216745e-05
-6.751509880216745e-05
-5.9247943846800084e-05
-5.6492225528344285e-05
-6.475938048371164e-05
-7.027081712062322e-05
-7.027081712062322e-05
-6.475938048371164e-05
-5.6492225528344285e-05
-6.200366216525588e-05
-6.751509880216745e-05
-5.9247943846800084e-05
-3.995791561760957e-05
-3.169076066224221e-05
-3.720219729915378e-05
-4.2713633936065354e-05
-3.720219729915378e-05
-2.8935042343786426e-05
-1.7912169069963278e-05
-1.377859159228559e-06
1.3778591592272275e-06
-6.889295796140132e-06
-6.889295796140132e-06
4.133577477683014e-06
4.133577477683014e-06
-1.240073243305171e-05
-3.169076066224221e-05
-3.995791561760957e-05
-3.720219729915378e-05
-3.995791561760957e-05
-5.3736507209888505e-05
-6.475938048371164e-05
-6.475938048371164e-05
-5.9247943846800084e-05
-5.6492225528344285e-05
-6.475938048371164e-05
-7.57822537575348e-05
-7.85379720759906e-05
-7.302653543907902e-05
-6.475938048371164e-05
-6.751509880216745e-05
-7.85379720759906e-05
-8.404940871290214e-05
-7.85379720759906e-05
-7.302653543907902e-05
-8.129369039444639e-05
-8.680512703135793e-05
-3.720219729915378e-05
6.475938048371032e-05
0.00019978957808804387
0.00040371273365377215
0.0007095974670023644
0.001335145525291828
0.0012607411306935217
0.0008336047913328749
0.00018876670481422076
-0.0003651326771953924
-0.0005800787060349438
-0.0005552772411688418
-0.00043953707179369863
-0.00032655262073701135
-0.0002218353246356915
-0.00016947667658503157
-0.00014743093003738526
-0.0001391637750820179
-0.0001391637750820179
-0.0001391637750820179
-0.00012814090180819475
-0.00011436231021591582
-0.00010333943694209268
-0.00010058371862363688
-0.00010333943694209268
-0.00010058371862363688
-9.231656366826955e-05
-8.404940871290214e-05
-8.129369039444639e-05
-8.680512703135793e-05
-8.404940871290214e-05
-7.85379720759906e-05
-7.027081712062322e-05
-6.751509880216745e-05
-7.302653543907902e-05
-7.57822537575348e-05
-6.751509880216745e-05
-5.6492225528344285e-05
-5.098078889143272e-05
-5.3736507209888505e-05
-5.9247943846800084e-05
-5.3736507209888505e-05
-4.2713633936065354e-05
-3.4446478980697995e-05
-3.4446478980697995e-05
-3.995791561760957e-05
-3.4446478980697995e-05
-2.6179324025330647e-05
-2.342360570687485e-05
-2.066788738841907e-05
-2.066788738841907e-05
-1.5156450751507488e-05
1.3778591592272275e-06
1.2400732433050376e-05
1.7912169069961946e-05
1.5156450751506162e-05
1.7912169069961946e-05
2.8935042343785094e-05
4.82250705729756e-05
6.200366216525454e-05
7.30265354390777e-05
8.404940871290084e-05
0.00010609515526054714
0.00013365233844510492
0.00015845380331120705
0.000172232394903486
0.00018601098649576498
0.00020530101472495543
0.00023010247959105753
0.0002493925078202481
0.0002549039444571596
0.0002576596627756154
0.000263171099412527
0.0002852168459601733
0.00027143825436789435
0.00024663678950179223
0.00022459104295414594
0.00020805673304341124
0.00018601098649576498
0.0001556980849927513
0.00012262946517128183
9.782800030517979e-05
8.129369039444505e-05
7.02708171206219e-05
5.373650720988717e-05
2.8935042343785094e-05
1.2400732433050376e-05
6.8892957961388014e-06
6.8892957961388014e-06
4.133577477683014e-06
-6.889295796140132e-06
-1.240073243305171e-05
-9.64501411459592e-06
-6.889295796140132e-06
-1.377859159228559e-06
-6.889295796140132e-06
-1.5156450751507488e-05
-1.240073243305171e-05
-4.133577477684346e-06
1.3778591592272275e-06
-4.133577477684346e-06
-9.64501411459592e-06
-6.889295796140132e-06
1.3778591592272275e-06
4.133577477683014e-06
1.3778591592272275e-06
-6.889295796140132e-06
-1.240073243305171e-05
-9.64501411459592e-06
-6.889295796140132e-06
-1.240073243305171e-05
-2.066788738841907e-05
-2.342360570687485e-05
-2.342360570687485e-05
-1.7912169069963278e-05
-1.7912169069963278e-05
-3.169076066224221e-05
-3.995791561760957e-05
-3.4446478980697995e-05
-3.169076066224221e-05
-3.169076066224221e-05
-3.995791561760957e-05
-5.098078889143272e-05
-4.8225070572976926e-05
-4.2713633936065354e-05
-3.995791561760957e-05
-4.8225070572976926e-05
-5.9247943846800084e-05
-6.200366216525588e-05
-5.6492225528344285e-05
-5.3736507209888505e-05
-5.6492225528344285e-05
-6.475938048371164e-05
-6.751509880216745e-05
-5.9247943846800084e-05
-5.3736507209888505e-05
-5.6492225528344285e-05
-6.475938048371164e-05
-7.027081712062322e-05
-6.751509880216745e-05
-6.200366216525588e-05
-6.475938048371164e-05
-7.302653543907902e-05
-6.751509880216745e-05
-5.6492225528344285e-05
-5.6492225528344285e-05
-6.200366216525588e-05
-6.200366216525588e-05
-5.098078889143272e-05
-4.2713633936065354e-05
-3.995791561760957e-05
-3.995791561760957e-05
-3.995791561760957e-05
-3.4446478980697995e-05
-2.066788738841907e-05
-4.133577477684346e-06
4.133577477683014e-06
-6.889295796140132e-06
-1.5156450751507488e-05
-6.889295796140132e-06
-1.377859159228559e-06
-9.64501411459592e-06
-3.169076066224221e-05
-4.8225070572976926e-05
-5.3736507209888505e-05
-5.098078889143272e-05
-5.6492225528344285e-05
-7.027081712062322e-05
-7.85379720759906e-05
-7.57822537575348e-05
-7.57822537575348e-05
-7.85379720759906e-05
-8.129369039444639e-05
-8.680512703135793e-05
-8.404940871290214e-05
-8.129369039444639e-05
-8.129369039444639e-05
-8.956084534981374e-05
-9.78280003051811e-05
-9.507228198672531e-05
-8.680512703135793e-05
-8.956084534981374e-05
-0.00010333943694209268
-8.956084534981374e-05
-1.240073243305171e-05
0.00011436231021591448
0.0002934840009155406
0.0005525215228503846
0.0009162763408865484
0.0012662525673304335
0.001379237018387121
0.0011201994964522765
0.0005442543678950173
-0.00012814090180819475
-0.0005194529030289164
-0.0005966130159456783
-0.0005222086213473721
-0.00041749132524605234
-0.0003127740291447324
-0.0002190796063172357
-0.0001777438315403989
-0.0001612095216296642
-0.00015294236667429682
-0.0001584538033112084
-0.00015569808499275262
-0.00014467521171892948
-0.0001336523384451063
-0.0001226294651712832
-0.00012538518348973897
-0.00012814090180819475
-0.00011160659189746003
-0.00010885087357900426
-0.00011160659189746003
-0.00010885087357900426
-0.00010609515526054846
-9.78280003051811e-05
-8.404940871290214e-05
-8.404940871290214e-05
-9.507228198672531e-05
-9.231656366826955e-05
-8.404940871290214e-05
-7.57822537575348e-05
-7.027081712062322e-05
-7.027081712062322e-05
-7.027081712062322e-05
-6.475938048371164e-05
-5.098078889143272e-05
-4.2713633936065354e-05
-5.098078889143272e-05
-5.9247943846800084e-05
-5.098078889143272e-05
-3.995791561760957e-05
-3.169076066224221e-05
-3.169076066224221e-05
-3.4446478980697995e-05
-2.342360570687485e-05
-6.889295796140132e-06
6.8892957961388014e-06
6.8892957961388014e-06
4.133577477683014e-06
1.7912169069961946e-05
3.444647898069667e-05
5.098078889143139e-05
6.200366216525454e-05
7.30265354390777e-05
9.507228198672396e-05
0.0001253851834897376
0.00015018664835583973
0.000172232394903486
0.0001832552681773092
0.00019978957808804387
0.00022734676127260172
0.00025214822613870384
0.000263171099412527
0.0002686825360494386
0.0002741939726863501
0.0002852168459601733
0.0002934840009155406
0.0002934840009155406
0.00027143825436789435
0.00024388107118333642
0.0002135681696803228
0.00019427814145113231
0.0001694766765850302
0.00013640805676356078
0.00010333943694209132
8.129369039444505e-05
6.751509880216611e-05
5.098078889143139e-05
3.444647898069667e-05
9.64501411459459e-06
-1.377859159228559e-06
-4.133577477684346e-06
-4.133577477684346e-06
-1.240073243305171e-05
-2.6179324025330647e-05
-2.8935042343786426e-05
-2.066788738841907e-05
-2.066788738841907e-05
-2.8935042343786426e-05
-2.6179324025330647e-05
-2.342360570687485e-05
-1.7912169069963278e-05
-1.5156450751507488e-05
-2.066788738841907e-05
-2.6179324025330647e-05
-2.342360570687485e-05
-1.7912169069963278e-05
-1.5156450751507488e-05
-2.342360570687485e-05
-3.169076066224221e-05
-3.4446478980697995e-05
-3.4446478980697995e-05
-3.4446478980697995e-05
-3.995791561760957e-05
-4.5469352254521147e-05
-4.5469352254521147e-05
-4.2713633936065354e-05
-3.720219729915378e-05
-4.2713633936065354e-05
-5.9247943846800084e-05
-6.475938048371164e-05
-6.200366216525588e-05
-5.9247943846800084e-05
-6.475938048371164e-05
-7.302653543907902e-05
-7.57822537575348e-05
-6.751509880216745e-05
-6.200366216525588e-05
-6.475938048371164e-05
-7.302653543907902e-05
-8.129369039444639e-05
-8.129369039444639e-05
-7.85379720759906e-05
-7.57822537575348e-05
-8.129369039444639e-05
-8.680512703135793e-05
-8.129369039444639e-05
-7.57822537575348e-05
-7.027081712062322e-05
-7.85379720759906e-05
-8.680512703135793e-05
-8.680512703135793e-05
-8.129369039444639e-05
-7.57822537575348e-05
-8.404940871290214e-05
-9.231656366826955e-05
-8.956084534981374e-05
-8.404940871290214e-05
-7.85379720759906e-05
-8.129369039444639e-05
-8.680512703135793e-05
-8.129369039444639e-05
-6.475938048371164e-05
-5.6492225528344285e-05
-5.3736507209888505e-05
-5.6492225528344285e-05
-5.6492225528344285e-05
-5.098078889143272e-05
-3.995791561760957e-05
-1.7912169069963278e-05
-1.7912169069963278e-05
-3.169076066224221e-05
-2.8935042343786426e-05
-1.7912169069963278e-05
-1.7912169069963278e-05
-3.4446478980697995e-05
-5.9247943846800084e-05
-6.200366216525588e-05
-5.9247943846800084e-05
-7.027081712062322e-05
-8.129369039444639e-05
-8.680512703135793e-05
-8.404940871290214e-05
-7.85379720759906e-05
-8.404940871290214e-05
-9.507228198672531e-05
-9.78280003051811e-05
-9.507228198672531e-05
-8.956084534981374e-05
-8.956084534981374e-05
-9.78280003051811e-05
-0.00010058371862363688
-9.78280003051811e-05
-9.231656366826955e-05
-9.78280003051811e-05
-0.00010885087357900426
-8.129369039444639e-05
1.2400732433050376e-05
0.00015018664835583973
0.0003485983672846564
0.0006462159456778814
0.0010430393835355147
0.0013544355535210185
0.0013627027084763858
0.0009961921721217662
0.0003485983672846564
-0.00027419397268635144
-0.0005552772411688418
-0.0005663001144426648
-0.0004698499732967123
-0.00036788839551384826
-0.0002686825360494398
-0.00020254529640650095
-0.0001777438315403989
-0.00016947667658503157
-0.00016947667658503157
-0.00016947667658503157
-0.00016396523994811996
-0.00014743093003738526
-0.0001336523384451063
-0.00012538518348973897
-0.00013089662012665053
-0.00013089662012665053
-0.00012538518348973897
-0.00011436231021591582
-0.00011160659189746003
-0.00011436231021591582
-0.00011436231021591582
-0.00010609515526054846
-9.78280003051811e-05
-9.507228198672531e-05
-0.00010058371862363688
-0.00010885087357900426
-0.00010609515526054846
-9.231656366826955e-05
-8.404940871290214e-05
-8.404940871290214e-05
-8.680512703135793e-05
-8.404940871290214e-05
-7.57822537575348e-05
-6.475938048371164e-05
-6.475938048371164e-05
-7.027081712062322e-05
-6.751509880216745e-05
-5.3736507209888505e-05
-4.8225070572976926e-05
-5.098078889143272e-05
-4.5469352254521147e-05
-3.169076066224221e-05
-2.066788738841907e-05
-1.5156450751507488e-05
-1.240073243305171e-05
-9.64501411459592e-06
4.133577477683014e-06
2.3423605706873515e-05
3.9957915617608246e-05
4.82250705729756e-05
5.9247943846798756e-05
8.129369039444505e-05
0.00011160659189745871
0.00013916377508201656
0.00015294236667429551
0.00016120952162966288
0.0001832552681773092
0.00020805673304341124
0.00022734676127260172
0.00024112535286488067
0.00024112535286488067
0.0002493925078202481
0.000263171099412527
0.0002741939726863501
0.0002686825360494386
0.00024663678950179223
0.00022734676127260172
0.00020805673304341124
0.00018876670481422076
0.00016396523994811866
0.00012814090180819342
0.00010058371862363556
8.404940871290084e-05
7.02708171206219e-05
5.649222552834297e-05
3.169076066224089e-05
9.64501411459459e-06
1.3778591592272275e-06
-4.133577477684346e-06
-1.240073243305171e-05
-1.7912169069963278e-05
-3.169076066224221e-05
-3.4446478980697995e-05
-3.169076066224221e-05
-2.6179324025330647e-05
-3.169076066224221e-05
-4.5469352254521147e-05
-4.8225070572976926e-05
-3.720219729915378e-05
-3.169076066224221e-05
-3.169076066224221e-05
-3.720219729915378e-05
-3.720219729915378e-05
-3.169076066224221e-05
-2.6179324025330647e-05
-2.342360570687485e-05
-3.169076066224221e-05
-3.720219729915378e-05
-3.4446478980697995e-05
-2.8935042343786426e-05
-3.4446478980697995e-05
-4.5469352254521147e-05
-4.8225070572976926e-05
-4.5469352254521147e-05
-4.2713633936065354e-05
-4.2713633936065354e-05
-5.9247943846800084e-05
-5.9247943846800084e-05
-5.6492225528344285e-05
-5.3736507209888505e-05
-6.475938048371164e-05
-7.57822537575348e-05
-7.302653543907902e-05
-6.751509880216745e-05
-6.200366216525588e-05
-6.475938048371164e-05
-7.85379720759906e-05
-8.129369039444639e-05
-7.57822537575348e-05
-7.027081712062322e-05
-7.57822537575348e-05
-8.129369039444639e-05
-8.404940871290214e-05
-8.129369039444639e-05
-7.57822537575348e-05
-7.027081712062322e-05
-7.85379720759906e-05
-8.956084534981374e-05
-8.956084534981374e-05
-8.129369039444639e-05
-8.129369039444639e-05
-8.404940871290214e-05
-8.956084534981374e-05
-8.404940871290214e-05
-7.85379720759906e-05
-7.57822537575348e-05
-8.404940871290214e-05
-8.680512703135793e-05
-7.57822537575348e-05
-6.200366216525588e-05
-5.6492225528344285e-05
-5.6492225528344285e-05
-6.200366216525588e-05
-5.9247943846800084e-05
-4.5469352254521147e-05
-2.6179324025330647e-05
-9.64501411459592e-06
-1.5156450751507488e-05
-2.6179324025330647e-05
-2.342360570687485e-05
-1.5156450751507488e-05
-1.7912169069963278e-05
-2.8935042343786426e-05
-4.8225070572976926e-05
-5.9247943846800084e-05
-5.9247943846800084e-05
-5.9247943846800084e-05
-7.302653543907902e-05
-8.404940871290214e-05
-8.680512703135793e-05
-8.129369039444639e-05
-8.129369039444639e-05
-8.956084534981374e-05
-9.231656366826955e-05
-8.956084534981374e-05
-8.404940871290214e-05
-8.404940871290214e-05
-8.956084534981374e-05
-0.00010058371862363688
-0.00010333943694209268
-9.78280003051811e-05
-9.231656366826955e-05
-0.00010609515526054846
-0.0001198737468528274
2.8935042343785094e-05
0.000172232394903486
0.00037891126878767
0.000701330312046997
0.0011091766231784534
0.0013957713282978553
0.0013544355535210185
0.0009383220874341949
0.0002741939726863501
-0.0003210411841000998
-0.0005525215228503861
-0.0005414986495765627
-0.00044504850843061025
-0.0003430869306477461
-0.00024112535286488197
-0.00018876670481422206
-0.00016947667658503157
-0.00016396523994811996
-0.00016672095826657574
-0.00016396523994811996
-0.00015569808499275262
-0.00014467521171892948
-0.0001336523384451063
-0.00012814090180819475
-0.00012814090180819475
-0.00012538518348973897
-0.0001198737468528274
-0.00011436231021591582
-0.00011160659189746003
-0.00011436231021591582
-0.00010885087357900426
-0.00010333943694209268
-9.231656366826955e-05
-8.956084534981374e-05
-9.507228198672531e-05
-9.78280003051811e-05
-9.231656366826955e-05
-8.129369039444639e-05
-7.57822537575348e-05
-8.129369039444639e-05
-8.404940871290214e-05
-7.57822537575348e-05
-6.200366216525588e-05
-5.6492225528344285e-05
-5.9247943846800084e-05
-6.200366216525588e-05
-5.6492225528344285e-05
-4.2713633936065354e-05
-3.720219729915378e-05
-4.2713633936065354e-05
-4.5469352254521147e-05
-3.720219729915378e-05
-2.8935042343786426e-05
-1.7912169069963278e-05
-1.7912169069963278e-05
-1.7912169069963278e-05
-9.64501411459592e-06
4.133577477683014e-06
2.066788738841773e-05
3.169076066224089e-05
3.9957915617608246e-05
5.373650720988717e-05
7.853797207598924e-05
0.00010609515526054714
0.00012814090180819342
0.00013916377508201656
0.00015294236667429551
0.00017498811322194178
0.00020254529640649968
0.00022459104295414594
0.00023561391622796914
0.00024663678950179223
0.0002576596627756154
0.000263171099412527
0.0002549039444571596
0.0002383696345464249
0.0002218353246356902
0.00020530101472495543
0.00018876670481422076
0.00015845380331120705
0.00012814090180819342
0.00010333943694209132
8.404940871290084e-05
7.30265354390777e-05
5.373650720988717e-05
3.444647898069667e-05
1.7912169069961946e-05
9.64501411459459e-06
6.8892957961388014e-06
-4.133577477684346e-06
-2.066788738841907e-05
-2.8935042343786426e-05
-2.8935042343786426e-05
-2.6179324025330647e-05
-2.6179324025330647e-05
-3.720219729915378e-05
-4.5469352254521147e-05
-4.2713633936065354e-05
-3.169076066224221e-05
-2.8935042343786426e-05
-3.720219729915378e-05
-4.2713633936065354e-05
-3.720219729915378e-05
-3.169076066224221e-05
-2.342360570687485e-05
-2.8935042343786426e-05
-4.2713633936065354e-05
-4.5469352254521147e-05
-3.720219729915378e-05
-3.169076066224221e-05
-3.4446478980697995e-05
-4.2713633936065354e-05
-4.5469352254521147e-05
-4.2713633936065354e-05
-3.995791561760957e-05
-4.2713633936065354e-05
-5.098078889143272e-05
-5.6492225528344285e-05
-5.3736507209888505e-05
-4.8225070572976926e-05
-5.098078889143272e-05
-6.200366216525588e-05
-7.027081712062322e-05
-6.751509880216745e-05
-6.200366216525588e-05
-5.9247943846800084e-05
-7.027081712062322e-05
-8.129369039444639e-05
-7.85379720759906e-05
-7.302653543907902e-05
-7.302653543907902e-05
-7.85379720759906e-05
-8.404940871290214e-05
-7.85379720759906e-05
-7.57822537575348e-05
-7.302653543907902e-05
-7.85379720759906e-05
-8.680512703135793e-05
-8.129369039444639e-05
-7.85379720759906e-05
-8.129369039444639e-05
-8.956084534981374e-05
-8.956084534981374e-05
-8.680512703135793e-05
-8.129369039444639e-05
-8.129369039444639e-05
-8.956084534981374e-05
-9.507228198672531e-05
-8.680512703135793e-05
-7.027081712062322e-05
-5.9247943846800084e-05
-6.200366216525588e-05
-6.475938048371164e-05
-5.9247943846800084e-05
-4.8225070572976926e-05
-3.995791561760957e-05
-3.995791561760957e-05
-3.169076066224221e-05
-2.6179324025330647e-05
-2.342360570687485e-05
-2.342360570687485e-05
-2.342360570687485e-05
-2.8935042343786426e-05
-3.4446478980697995e-05
-4.2713633936065354e-05
-4.8225070572976926e-05
-5.9247943846800084e-05
-7.302653543907902e-05
-8.129369039444639e-05
-7.85379720759906e-05
-7.57822537575348e-05
-8.129369039444639e-05
-8.956084534981374e-05
-9.231656366826955e-05
-9.231656366826955e-05
-8.956084534981374e-05
-8.956084534981374e-05
-9.507228198672531e-05
-0.00010333943694209268
-0.00010058371862363688
-9.231656366826955e-05
-9.231656366826955e-05
-0.00010058371862363688
-0.0001198737468528274
-0.0001198737468528274
-7.027081712062322e-05
1.7912169069961946e-05
0.00013089662012664922
0.0003127740291447311
0.0006214144808117793
0.0010127264820325008
0.0012827868772411677
0.0012359396658274198
0.0008280933546959632
0.00022734676127260172
-0.0003155297474631883
-0.0005525215228503861
-0.0005414986495765627
-0.00043678135347524285
-0.0003100183108262768
-0.0002108124513618684
-0.00017498811322194308
-0.00016396523994811996
-0.00016672095826657574
-0.00016396523994811996
-0.00014191949340047367
-0.0001336523384451063
-0.0001336523384451063
-0.0001391637750820179
-0.0001364080567635621
-0.0001226294651712832
-0.00011160659189746003
-0.00011436231021591582
-0.0001198737468528274
-0.0001171180285343716
-0.00010885087357900426
-0.00010058371862363688
-0.00010333943694209268
-0.00010885087357900426
-0.00010609515526054846
-0.00010058371862363688
-9.507228198672531e-05
-9.507228198672531e-05
-9.78280003051811e-05
-9.507228198672531e-05
-8.956084534981374e-05
-7.85379720759906e-05
-7.57822537575348e-05
-8.129369039444639e-05
-8.680512703135793e-05
-7.85379720759906e-05
-6.475938048371164e-05
-6.200366216525588e-05
-6.475938048371164e-05
-6.475938048371164e-05
-5.9247943846800084e-05
-4.8225070572976926e-05
-4.2713633936065354e-05
-4.5469352254521147e-05
-4.5469352254521147e-05
-3.995791561760957e-05
-2.8935042343786426e-05
-1.7912169069963278e-05
-9.64501411459592e-06
-6.889295796140132e-06
1.3778591592272275e-06
2.066788738841773e-05
4.546935225451981e-05
5.9247943846798756e-05
6.475938048371032e-05
8.129369039444505e-05
0.00010333943694209132
0.00012814090180819342
0.00014191949340047234
0.00014743093003738393
0.0001556980849927513
0.000172232394903486
0.00018601098649576498
0.00019152242313267648
0.00018601098649576498
0.00018049954985885336
0.00017774383154039756
0.00018049954985885336
0.00016672095826657444
0.00014191949340047234
0.00011987374685282605
0.00010609515526054714
9.23165636682682e-05
7.853797207598924e-05
5.9247943846798756e-05
3.9957915617608246e-05
2.6179324025329308e-05
2.3423605706873515e-05
1.7912169069961946e-05
-9.64501411459592e-06
-1.7912169069963278e-05
-2.066788738841907e-05
-2.066788738841907e-05
-2.6179324025330647e-05
-3.720219729915378e-05
-4.2713633936065354e-05
-4.2713633936065354e-05
-3.720219729915378e-05
-3.995791561760957e-05
-4.8225070572976926e-05
-5.098078889143272e-05
-4.8225070572976926e-05
-4.2713633936065354e-05
-3.995791561760957e-05
-4.8225070572976926e-05
-5.9247943846800084e-05
-5.6492225528344285e-05
-4.8225070572976926e-05
-4.8225070572976926e-05
-5.3736507209888505e-05
-5.9247943846800084e-05
-5.6492225528344285e-05
-5.098078889143272e-05
-4.8225070572976926e-05
-5.6492225528344285e-05
-6.751509880216745e-05
-6.751509880216745e-05
-5.9247943846800084e-05
-5.6492225528344285e-05
-5.9247943846800084e-05
-6.751509880216745e-05
-7.027081712062322e-05
-6.751509880216745e-05
-6.200366216525588e-05
-6.200366216525588e-05
-7.302653543907902e-05
-7.85379720759906e-05
-7.302653543907902e-05
-6.751509880216745e-05
-6.475938048371164e-05
-7.57822537575348e-05
-8.129369039444639e-05
-7.85379720759906e-05
-7.57822537575348e-05
-7.57822537575348e-05
-7.85379720759906e-05
-8.404940871290214e-05
-8.129369039444639e-05
-7.302653543907902e-05
-7.027081712062322e-05
-7.57822537575348e-05
-8.404940871290214e-05
-8.680512703135793e-05
-8.129369039444639e-05
-7.302653543907902e-05
-7.85379720759906e-05
-8.680512703135793e-05
-8.956084534981374e-05
-8.404940871290214e-05
-7.85379720759906e-05
-7.027081712062322e-05
-6.200366216525588e-05
-5.9247943846800084e-05
-5.3736507209888505e-05
-4.5469352254521147e-05
-4.2713633936065354e-05
-5.098078889143272e-05
-2.6179324025330647e-05
-1.240073243305171e-05
-1.7912169069963278e-05
-2.342360570687485e-05
-2.342360570687485e-05
-2.342360570687485e-05
-3.169076066224221e-05
-4.2713633936065354e-05
-6.200366216525588e-05
-7.302653543907902e-05
-7.302653543907902e-05
-7.302653543907902e-05
-7.027081712062322e-05
-7.85379720759906e-05
-8.956084534981374e-05
-8.956084534981374e-05
-8.680512703135793e-05
-8.404940871290214e-05
-8.956084534981374e-05
-9.507228198672531e-05
-0.00010058371862363688
-9.78280003051811e-05
-9.231656366826955e-05
-8.956084534981374e-05
-9.78280003051811e-05
-0.00010609515526054846
-0.00011160659189746003
-8.680512703135793e-05
-1.7912169069963278e-05
7.30265354390777e-05
0.000210812451361867
0.0004588271000228878
0.0008253376363775078
0.0011753138628213923
0.0012910540321965354
0.001037527946898603
0.0005249643396658268
-6.751509880216745e-05
-0.00046433853665980087
-0.0005635443961242091
-0.00048087284657053543
-0.0003458426489662019
-0.00022459104295414727
-0.00016947667658503157
-0.00016396523994811996
-0.00016672095826657574
-0.0001612095216296642
-0.000150186648355841
-0.0001391637750820179
-0.0001336523384451063
-0.0001364080567635621
-0.0001364080567635621
-0.00012814090180819475
-0.00011436231021591582
-0.00011436231021591582
-0.0001226294651712832
-0.0001226294651712832
-0.00011160659189746003
-0.00010333943694209268
-0.00010058371862363688
-0.00010609515526054846
-0.00011160659189746003
-0.00010333943694209268
-9.507228198672531e-05
-9.231656366826955e-05
-9.231656366826955e-05
-9.507228198672531e-05
-8.680512703135793e-05
-7.85379720759906e-05
-7.57822537575348e-05
-8.129369039444639e-05
-8.129369039444639e-05
-7.302653543907902e-05
-6.751509880216745e-05
-6.751509880216745e-05
-7.302653543907902e-05
-7.027081712062322e-05
-6.200366216525588e-05
-5.098078889143272e-05
-4.8225070572976926e-05
-5.6492225528344285e-05
-5.6492225528344285e-05
-4.5469352254521147e-05
-3.169076066224221e-05
-2.066788738841907e-05
-1.7912169069963278e-05
-1.5156450751507488e-05
-1.377859159228559e-06
1.7912169069961946e-05
3.444647898069667e-05
4.271363393606403e-05
5.649222552834297e-05
7.30265354390777e-05
9.23165636682682e-05
0.00010885087357900291
0.00011987374685282605
0.00013089662012664922
0.00014467521171892812
0.00015845380331120705
0.00017498811322194178
0.00018049954985885336
0.00017498811322194178
0.00017498811322194178
0.00018049954985885336
0.00017774383154039756
0.00016396523994811866
0.00014191949340047234
0.00011987374685282605
0.00010609515526054714
9.782800030517979e-05
8.404940871290084e-05
6.200366216525454e-05
3.9957915617608246e-05
3.169076066224089e-05
2.8935042343785094e-05
1.7912169069961946e-05
1.3778591592272275e-06
-1.240073243305171e-05
-1.7912169069963278e-05
-1.5156450751507488e-05
-1.240073243305171e-05
-2.6179324025330647e-05
-3.995791561760957e-05
-4.5469352254521147e-05
-4.2713633936065354e-05
-3.995791561760957e-05
-4.8225070572976926e-05
-5.3736507209888505e-05
-5.6492225528344285e-05
-4.8225070572976926e-05
-3.720219729915378e-05
-4.2713633936065354e-05
-5.6492225528344285e-05
-5.6492225528344285e-05
-5.098078889143272e-05
-4.2713633936065354e-05
-4.5469352254521147e-05
-5.6492225528344285e-05
-5.098078889143272e-05
-4.2713633936065354e-05
-3.995791561760957e-05
-4.8225070572976926e-05
-5.9247943846800084e-05
-5.6492225528344285e-05
-5.098078889143272e-05
-4.8225070572976926e-05
-5.6492225528344285e-05
-6.751509880216745e-05
-6.475938048371164e-05
-6.200366216525588e-05
-6.200366216525588e-05
-6.475938048371164e-05
-7.302653543907902e-05
-7.57822537575348e-05
-6.751509880216745e-05
-6.475938048371164e-05
-7.302653543907902e-05
-8.129369039444639e-05
-8.129369039444639e-05
-7.57822537575348e-05
-7.027081712062322e-05
-7.302653543907902e-05
-8.129369039444639e-05
-8.680512703135793e-05
-8.404940871290214e-05
-7.85379720759906e-05
-7.57822537575348e-05
-7.85379720759906e-05
-8.404940871290214e-05
-8.129369039444639e-05
-7.302653543907902e-05
-7.027081712062322e-05
-8.129369039444639e-05
-8.956084534981374e-05
-8.680512703135793e-05
-7.57822537575348e-05
-7.302653543907902e-05
-7.302653543907902e-05
-6.751509880216745e-05
-5.9247943846800084e-05
-5.3736507209888505e-05
-4.2713633936065354e-05
-4.2713633936065354e-05
-5.098078889143272e-05
-5.098078889143272e-05
-2.8935042343786426e-05
-6.889295796140132e-06
-9.64501411459592e-06
-2.342360570687485e-05
-2.066788738841907e-05
-1.5156450751507488e-05
-1.5156450751507488e-05
-2.342360570687485e-05
-4.2713633936065354e-05
-6.200366216525588e-05
-6.475938048371164e-05
-6.200366216525588e-05
-6.475938048371164e-05
-7.57822537575348e-05
-8.404940871290214e-05
-7.85379720759906e-05
-7.57822537575348e-05
-7.027081712062322e-05
-7.85379720759906e-05
-9.231656366826955e-05
-9.507228198672531e-05
-8.404940871290214e-05
-8.956084534981374e-05
-9.231656366826955e-05
-8.956084534981374e-05
-8.956084534981374e-05
-8.404940871290214e-05
-5.3736507209888505e-05
2.066788738841773e-05
0.00014467521171892812
0.0003375754940108332
0.0006269259174486908
0.000998947890440222
0.0012910540321965354
0.001293809750514991
0.0009410778057526506
0.0003293083390554659
-0.0002686825360494398
-0.0005690558327611206
-0.0005966130159456783
-0.0004918957198443586
-0.00036788839551384826
-0.0002466367895017936
-0.00018049954985885472
-0.00016396523994811996
-0.00015569808499275262
-0.00014743093003738526
-0.0001336523384451063
-0.00012814090180819475
-0.00012814090180819475
-0.00012538518348973897
-0.0001171180285343716
-0.00010609515526054846
-0.00010333943694209268
-0.00010609515526054846
-0.00010333943694209268
-9.507228198672531e-05
-8.680512703135793e-05
-8.680512703135793e-05
-9.231656366826955e-05
-9.231656366826955e-05
-8.680512703135793e-05
-7.85379720759906e-05
-7.57822537575348e-05
-7.85379720759906e-05
-7.57822537575348e-05
-7.027081712062322e-05
-5.9247943846800084e-05
-5.098078889143272e-05
-5.3736507209888505e-05
-5.6492225528344285e-05
-5.098078889143272e-05
-3.995791561760957e-05
-3.4446478980697995e-05
-3.4446478980697995e-05
-3.995791561760957e-05
-3.720219729915378e-05
-2.342360570687485e-05
-1.240073243305171e-05
-1.240073243305171e-05
-1.5156450751507488e-05
-9.64501411459592e-06
1.3778591592272275e-06
1.5156450751506162e-05
2.3423605706873515e-05
2.8935042343785094e-05
3.720219729915245e-05
5.649222552834297e-05
7.578225375753347e-05
0.00010333943694209132
0.00011711802853437029
0.00014467521171892812
0.0001694766765850302
0.00018876670481422076
0.00020254529640649968
0.00021632388799877858
0.00023285819790951333
0.0002549039444571596
0.00027143825436789435
0.0002741939726863501
0.00027143825436789435
0.00027143825436789435
0.00026592681773098274
0.0002576596627756154
0.00023561391622796914
0.00020530101472495543
0.0001832552681773092
0.00016396523994811866
0.00014191949340047234
0.00011436231021591448
8.68051270313566e-05
6.751509880216611e-05
5.373650720988717e-05
4.546935225451981e-05
3.169076066224089e-05
1.5156450751506162e-05
9.64501411459459e-06
6.8892957961388014e-06
4.133577477683014e-06
4.133577477683014e-06
-6.889295796140132e-06
-9.64501411459592e-06
-9.64501411459592e-06
-4.133577477684346e-06
-1.377859159228559e-06
-6.889295796140132e-06
-9.64501411459592e-06
-4.133577477684346e-06
4.133577477683014e-06
9.64501411459459e-06
4.133577477683014e-06
-4.133577477684346e-06
-9.64501411459592e-06
-1.377859159228559e-06
4.133577477683014e-06
-4.133577477684346e-06
-9.64501411459592e-06
-1.240073243305171e-05
-1.240073243305171e-05
-9.64501411459592e-06
-1.5156450751507488e-05
-2.6179324025330647e-05
-3.4446478980697995e-05
-3.169076066224221e-05
-2.6179324025330647e-05
-2.8935042343786426e-05
-3.720219729915378e-05
-4.2713633936065354e-05
-3.995791561760957e-05
-3.4446478980697995e-05
-3.720219729915378e-05
-4.2713633936065354e-05
-5.098078889143272e-05
-5.3736507209888505e-05
-4.5469352254521147e-05
-4.5469352254521147e-05
-5.098078889143272e-05
-5.6492225528344285e-05
-5.098078889143272e-05
-4.5469352254521147e-05
-5.098078889143272e-05
-6.200366216525588e-05
-6.475938048371164e-05
-5.6492225528344285e-05
-5.098078889143272e-05
-5.6492225528344285e-05
-6.200366216525588e-05
-6.200366216525588e-05
-5.6492225528344285e-05
-5.098078889143272e-05
-5.098078889143272e-05
-5.9247943846800084e-05
-6.475938048371164e-05
-5.9247943846800084e-05
-5.3736507209888505e-05
-5.098078889143272e-05
-5.3736507209888505e-05
-4.5469352254521147e-05
-3.720219729915378e-05
-2.8935042343786426e-05
-2.342360570687485e-05
-2.342360570687485e-05
-3.169076066224221e-05
-2.8935042343786426e-05
-4.133577477684346e-06
1.5156450751506162e-05
4.133577477683014e-06
-4.133577477684346e-06
1.3778591592272275e-06
6.8892957961388014e-06
6.8892957961388014e-06
-9.64501411459592e-06
-3.4446478980697995e-05
-4.2713633936065354e-05
-4.2713633936065354e-05
-4.2713633936065354e-05
-5.098078889143272e-05
-6.200366216525588e-05
-5.9247943846800084e-05
-5.6492225528344285e-05
-5.3736507209888505e-05
-5.6492225528344285e-05
-6.475938048371164e-05
-7.302653543907902e-05
-7.302653543907902e-05
-6.475938048371164e-05
-6.200366216525588e-05
-7.027081712062322e-05
-7.85379720759906e-05
-7.57822537575348e-05
-7.027081712062322e-05
-7.57822537575348e-05
-4.8225070572976926e-05
3.444647898069667e-05
0.00016672095826657444
0.0003623769588769353
0.0006572388189517045
0.0010402836652170589
0.0013489241168841066
0.0013847484550240322
0.001048550820172426
0.0004340256351567857
-0.00020530101472495681
-0.0005277200579842838
-0.0005690558327611206
-0.0004781171282520797
-0.0002549039444571609
-0.00018049954985885472
-0.00015294236667429682
-0.00014191949340047367
-0.00013089662012665053
-0.0001226294651712832
-0.0001226294651712832
-0.0001171180285343716
-0.00010885087357900426
-9.507228198672531e-05
-8.956084534981374e-05
-8.956084534981374e-05
-9.231656366826955e-05
-8.680512703135793e-05
-7.85379720759906e-05
-7.027081712062322e-05
-7.027081712062322e-05
-7.85379720759906e-05
-8.129369039444639e-05
-7.302653543907902e-05
-6.200366216525588e-05
-5.9247943846800084e-05
-6.200366216525588e-05
-5.9247943846800084e-05
-4.8225070572976926e-05
-3.995791561760957e-05
-3.720219729915378e-05
-4.5469352254521147e-05
-4.8225070572976926e-05
-3.995791561760957e-05
-2.8935042343786426e-05
-2.6179324025330647e-05
-2.8935042343786426e-05
-2.8935042343786426e-05
-2.342360570687485e-05
-9.64501411459592e-06
-4.133577477684346e-06
-6.889295796140132e-06
-6.889295796140132e-06
1.3778591592272275e-06
1.2400732433050376e-05
2.6179324025329308e-05
3.444647898069667e-05
3.9957915617608246e-05
5.373650720988717e-05
7.30265354390777e-05
9.23165636682682e-05
0.00010609515526054714
0.00011987374685282605
0.00014467521171892812
0.000172232394903486
0.00020254529640649968
0.0002190796063172344
0.00023561391622796914
0.0002576596627756154
0.0002769496910048059
0.0002934840009155406
0.0003072625925078196
0.0003072625925078196
0.0003072625925078196
0.00031001831082627527
0.0003127740291447311
0.00029623971923399637
0.00026592681773098274
0.0002383696345464249
0.00021632388799877858
0.00019152242313267648
0.00016672095826657444
0.00010333943694209132
8.129369039444505e-05
7.02708171206219e-05
5.9247943846798756e-05
3.9957915617608246e-05
2.3423605706873515e-05
1.5156450751506162e-05
1.7912169069961946e-05
2.066788738841773e-05
1.2400732433050376e-05
-1.377859159228559e-06
-6.889295796140132e-06
-1.377859159228559e-06
6.8892957961388014e-06
4.133577477683014e-06
-1.377859159228559e-06
-4.133577477684346e-06
1.3778591592272275e-06
9.64501411459459e-06
1.2400732433050376e-05
4.133577477683014e-06
-4.133577477684346e-06
-4.133577477684346e-06
1.3778591592272275e-06
4.133577477683014e-06
-4.133577477684346e-06
-1.240073243305171e-05
-1.240073243305171e-05
-9.64501411459592e-06
-6.889295796140132e-06
-1.5156450751507488e-05
-2.6179324025330647e-05
-2.8935042343786426e-05
-2.342360570687485e-05
-2.066788738841907e-05
-2.8935042343786426e-05
-3.995791561760957e-05
-4.2713633936065354e-05
-4.2713633936065354e-05
-3.4446478980697995e-05
-3.4446478980697995e-05
-5.098078889143272e-05
-5.3736507209888505e-05
-4.8225070572976926e-05
-4.5469352254521147e-05
-4.8225070572976926e-05
-5.9247943846800084e-05
-6.200366216525588e-05
-5.9247943846800084e-05
-5.098078889143272e-05
-4.8225070572976926e-05
-6.200366216525588e-05
-7.027081712062322e-05
-6.751509880216745e-05
-6.200366216525588e-05
-5.6492225528344285e-05
-6.200366216525588e-05
-6.751509880216745e-05
-6.751509880216745e-05
-6.475938048371164e-05
-5.6492225528344285e-05
-5.9247943846800084e-05
-6.751509880216745e-05
-7.027081712062322e-05
-6.200366216525588e-05
-5.6492225528344285e-05
-5.6492225528344285e-05
-5.9247943846800084e-05
-5.098078889143272e-05
-3.169076066224221e-05
-2.8935042343786426e-05
-3.169076066224221e-05
-3.169076066224221e-05
-2.6179324025330647e-05
-4.133577477684346e-06
9.64501411459459e-06
-1.377859159228559e-06
-1.240073243305171e-05
-6.889295796140132e-06
4.133577477683014e-06
4.133577477683014e-06
-1.7912169069963278e-05
-4.2713633936065354e-05
-5.098078889143272e-05
-4.8225070572976926e-05
-4.5469352254521147e-05
-5.3736507209888505e-05
-6.200366216525588e-05
-6.751509880216745e-05
-6.475938048371164e-05
-5.9247943846800084e-05
-6.200366216525588e-05
-7.57822537575348e-05
-8.129369039444639e-05
-7.302653543907902e-05
-7.027081712062322e-05
-7.027081712062322e-05
-7.57822537575348e-05
-7.57822537575348e-05
-7.302653543907902e-05
-7.302653543907902e-05
-8.404940871290214e-05
-8.129369039444639e-05
-2.066788738841907e-05
9.507228198672396e-05
0.00027143825436789435
0.0005332314946211942
0.0009024977492942696
0.0012772754406042562
0.0014260842298008686
0.0012138939192797731
0.0006737731288624392
-1.5156450751507488e-05
-0.00045882710002288904
-0.0005663001144426648
-0.000500162874799726
-0.0003954455786984061
-0.0002852168459601746
-0.00019703385976958942
-0.0001584538033112084
-0.00014467521171892948
-0.0001364080567635621
-0.00013089662012665053
-0.0001336523384451063
-0.00012814090180819475
-0.0001198737468528274
-0.00010885087357900426
-0.00010333943694209268
-0.00010609515526054846
-0.00010333943694209268
-9.507228198672531e-05
-8.680512703135793e-05
-8.404940871290214e-05
-9.231656366826955e-05
-9.231656366826955e-05
-8.680512703135793e-05
-7.85379720759906e-05
-8.129369039444639e-05
-8.404940871290214e-05
-7.57822537575348e-05
-6.200366216525588e-05
-5.3736507209888505e-05
-5.9247943846800084e-05
-6.200366216525588e-05
-5.9247943846800084e-05
-5.6492225528344285e-05
-4.5469352254521147e-05
-4.2713633936065354e-05
-4.5469352254521147e-05
-4.2713633936065354e-05
-3.169076066224221e-05
-2.066788738841907e-05
-1.5156450751507488e-05
-2.066788738841907e-05
-2.066788738841907e-05
-9.64501411459592e-06
1.3778591592272275e-06
6.8892957961388014e-06
9.64501411459459e-06
1.5156450751506162e-05
3.169076066224089e-05
4.82250705729756e-05
6.751509880216611e-05
7.578225375753347e-05
8.956084534981241e-05
0.00011160659189745871
0.00013916377508201656
0.00016396523994811866
0.00018049954985885336
0.00019978957808804387
0.0002218353246356902
0.00024388107118333642
0.0002686825360494386
0.0002769496910048059
0.00027970540932326175
0.00029072828259708476
0.0002989954375524522
0.0002989954375524522
0.00029072828259708476
0.0002686825360494386
0.00024388107118333642
0.00022459104295414594
0.00020530101472495543
0.00018049954985885336
0.00014743093003738393
0.00011711802853437029
0.00010058371862363556
8.68051270313566e-05
6.751509880216611e-05
4.82250705729756e-05
3.169076066224089e-05
2.3423605706873515e-05
1.7912169069961946e-05
1.2400732433050376e-05
-1.377859159228559e-06
-1.240073243305171e-05
-1.5156450751507488e-05
-9.64501411459592e-06
-9.64501411459592e-06
-9.64501411459592e-06
-1.7912169069963278e-05
-1.5156450751507488e-05
-9.64501411459592e-06
-1.377859159228559e-06
-6.889295796140132e-06
-1.7912169069963278e-05
-1.240073243305171e-05
-6.889295796140132e-06
-9.64501411459592e-06
-1.7912169069963278e-05
-1.7912169069963278e-05
-1.5156450751507488e-05
-6.889295796140132e-06
-9.64501411459592e-06
-2.066788738841907e-05
-2.6179324025330647e-05
-2.6179324025330647e-05
-2.342360570687485e-05
-2.6179324025330647e-05
-3.4446478980697995e-05
-3.995791561760957e-05
-4.2713633936065354e-05
-3.995791561760957e-05
-3.4446478980697995e-05
-3.995791561760957e-05
-5.098078889143272e-05
-5.098078889143272e-05
-4.5469352254521147e-05
-4.2713633936065354e-05
-4.8225070572976926e-05
-5.6492225528344285e-05
-5.3736507209888505e-05
-5.098078889143272e-05
-4.8225070572976926e-05
-4.8225070572976926e-05
-5.9247943846800084e-05
-6.200366216525588e-05
-5.9247943846800084e-05
-5.3736507209888505e-05
-5.098078889143272e-05
-5.9247943846800084e-05
-6.475938048371164e-05
-5.9247943846800084e-05
-5.3736507209888505e-05
-5.3736507209888505e-05
-5.9247943846800084e-05
-6.751509880216745e-05
-6.751509880216745e-05
-5.9247943846800084e-05
-5.6492225528344285e-05
-5.9247943846800084e-05
-5.6492225528344285e-05
-4.5469352254521147e-05
-2.8935042343786426e-05
-1.7912169069963278e-05
-2.6179324025330647e-05
-3.4446478980697995e-05
-2.8935042343786426e-05
-1.7912169069963278e-05
-4.133577477684346e-06
1.2400732433050376e-05
9.64501411459459e-06
1.3778591592272275e-06
4.133577477683014e-06
1.5156450751506162e-05
1.2400732433050376e-05
-9.64501411459592e-06
-2.342360570687485e-05
-3.169076066224221e-05
-3.720219729915378e-05
-4.2713633936065354e-05
-5.3736507209888505e-05
-5.6492225528344285e-05
-5.3736507209888505e-05
-4.8225070572976926e-05
-5.9247943846800084e-05
-7.027081712062322e-05
-7.302653543907902e-05
-6.751509880216745e-05
-6.200366216525588e-05
-7.027081712062322e-05
-7.57822537575348e-05
-7.302653543907902e-05
-6.475938048371164e-05
-6.200366216525588e-05
-8.129369039444639e-05
-9.78280003051811e-05
-5.6492225528344285e-05
4.546935225451981e-05
0.00018601098649576498
0.0003954455786984048
0.0007206203402761877
0.0011339780880445555
0.0014260842298008686
0.0013847484550240322
0.0009769021438925758
0.00031001831082627527
-0.00029072828259708617
-0.0005332314946211955
-0.0005222086213473721
-0.000423002761882964
-0.00031828546578164407
-0.00021356816968032413
-0.0001612095216296642
-0.00014467521171892948
-0.0001391637750820179
-0.00014191949340047367
-0.00014191949340047367
-0.00013089662012665053
-0.0001171180285343716
-0.00010885087357900426
-0.00010885087357900426
-0.00010885087357900426
-0.00010609515526054846
-9.78280003051811e-05
-8.680512703135793e-05
-8.404940871290214e-05
-8.956084534981374e-05
-8.956084534981374e-05
-8.404940871290214e-05
-7.302653543907902e-05
-6.751509880216745e-05
-7.57822537575348e-05
-7.57822537575348e-05
-6.751509880216745e-05
-5.6492225528344285e-05
-5.098078889143272e-05
-5.6492225528344285e-05
-6.200366216525588e-05
-5.6492225528344285e-05
-4.8225070572976926e-05
-3.995791561760957e-05
-4.5469352254521147e-05
-4.8225070572976926e-05
-3.720219729915378e-05
-2.6179324025330647e-05
-2.066788738841907e-05
-2.342360570687485e-05
-2.6179324025330647e-05
-2.066788738841907e-05
-9.64501411459592e-06
-1.377859159228559e-06
4.133577477683014e-06
1.2400732433050376e-05
2.6179324025329308e-05
4.271363393606403e-05
5.649222552834297e-05
6.200366216525454e-05
6.751509880216611e-05
8.956084534981241e-05
0.00011711802853437029
0.00013916377508201656
0.00015294236667429551
0.000172232394903486
0.0001970338597695881
0.0002218353246356902
0.00023561391622796914
0.00024112535286488067
0.00024663678950179223
0.0002576596627756154
0.0002686825360494386
0.0002741939726863501
0.0002686825360494386
0.00025214822613870384
0.0002383696345464249
0.00022459104295414594
0.00020805673304341124
0.00017774383154039756
0.00014743093003738393
0.00011987374685282605
0.00010058371862363556
8.68051270313566e-05
6.751509880216611e-05
4.82250705729756e-05
3.169076066224089e-05
2.066788738841773e-05
1.7912169069961946e-05
1.2400732433050376e-05
-1.377859159228559e-06
-1.240073243305171e-05
-1.7912169069963278e-05
-1.240073243305171e-05
-1.240073243305171e-05
-2.066788738841907e-05
-2.8935042343786426e-05
-2.8935042343786426e-05
-2.6179324025330647e-05
-2.066788738841907e-05
-2.6179324025330647e-05
-2.8935042343786426e-05
-2.6179324025330647e-05
-2.066788738841907e-05
-1.7912169069963278e-05
-1.7912169069963278e-05
-2.342360570687485e-05
-2.6179324025330647e-05
-2.066788738841907e-05
-1.7912169069963278e-05
-2.342360570687485e-05
-3.169076066224221e-05
-3.4446478980697995e-05
-2.8935042343786426e-05
-2.6179324025330647e-05
-2.8935042343786426e-05
-3.995791561760957e-05
-4.5469352254521147e-05
-4.5469352254521147e-05
-3.720219729915378e-05
-3.4446478980697995e-05
-4.2713633936065354e-05
-5.6492225528344285e-05
-5.3736507209888505e-05
-4.5469352254521147e-05
-5.098078889143272e-05
-6.200366216525588e-05
-6.200366216525588e-05
-5.6492225528344285e-05
-5.098078889143272e-05
-5.6492225528344285e-05
-6.751509880216745e-05
-7.027081712062322e-05
-6.475938048371164e-05
-6.200366216525588e-05
-6.200366216525588e-05
-7.027081712062322e-05
-7.027081712062322e-05
-6.751509880216745e-05
-5.9247943846800084e-05
-6.200366216525588e-05
-7.027081712062322e-05
-7.57822537575348e-05
-7.027081712062322e-05
-6.475938048371164e-05
-6.751509880216745e-05
-7.57822537575348e-05
-8.129369039444639e-05
-7.302653543907902e-05
-6.200366216525588e-05
-4.5469352254521147e-05
-4.5469352254521147e-05
-5.098078889143272e-05
-5.098078889143272e-05
-3.995791561760957e-05
-3.4446478980697995e-05
-3.4446478980697995e-05
-2.6179324025330647e-05
-1.240073243305171e-05
-1.240073243305171e-05
-9.64501411459592e-06
-9.64501411459592e-06
-1.7912169069963278e-05
-2.6179324025330647e-05
-2.8935042343786426e-05
-4.2713633936065354e-05
-5.6492225528344285e-05
-6.751509880216745e-05
-7.027081712062322e-05
-7.027081712062322e-05
-6.751509880216745e-05
-7.027081712062322e-05
-8.129369039444639e-05
-8.680512703135793e-05
-8.680512703135793e-05
-7.85379720759906e-05
-7.85379720759906e-05
-8.680512703135793e-05
-9.231656366826955e-05
-9.231656366826955e-05
-8.680512703135793e-05
-7.85379720759906e-05
-8.680512703135793e-05
-0.00010333943694209268
-0.00010609515526054846
-7.57822537575348e-05
1.3778591592272275e-06
0.00010609515526054714
0.0002576596627756154
0.0005249643396658268
0.000908009185931181
0.0013103440604257258
0.000998947890440222
0.0004422927901121532
-0.00015569808499275262
-0.0004974071564812702
-0.0005525215228503861
-0.0004615828183413449
-0.0003348197756923787
-0.0002218353246356915
-0.00016947667658503157
-0.00015569808499275262
-0.00015569808499275262
-0.00015569808499275262
-0.00014191949340047367
-0.00012814090180819475
-0.0001171180285343716
-0.0001226294651712832
-0.00012814090180819475
-0.0001226294651712832
-0.0001171180285343716
-0.00010333943694209268
-0.00010333943694209268
-0.00010885087357900426
-0.00010609515526054846
-9.78280003051811e-05
-8.956084534981374e-05
-9.231656366826955e-05
-9.507228198672531e-05
-9.507228198672531e-05
-8.956084534981374e-05
-7.85379720759906e-05
-7.302653543907902e-05
-8.129369039444639e-05
-8.404940871290214e-05
-7.302653543907902e-05
-6.751509880216745e-05
-6.475938048371164e-05
-6.751509880216745e-05
-7.027081712062322e-05
-6.751509880216745e-05
-5.6492225528344285e-05
-5.098078889143272e-05
-5.6492225528344285e-05
-5.9247943846800084e-05
-5.3736507209888505e-05
-4.5469352254521147e-05
-3.995791561760957e-05
-4.2713633936065354e-05
-4.2713633936065354e-05
-3.720219729915378e-05
-2.6179324025330647e-05
-1.240073243305171e-05
-9.64501411459592e-06
-9.64501411459592e-06
1.3778591592272275e-06
1.7912169069961946e-05
3.444647898069667e-05
4.546935225451981e-05
5.649222552834297e-05
7.30265354390777e-05
0.00010058371862363556
0.0001253851834897376
0.00013640805676356078
0.00014191949340047234
0.00015018664835583973
0.00016396523994811866
0.0001832552681773092
0.00019152242313267648
0.00018876670481422076
0.00018601098649576498
0.0001832552681773092
0.00017498811322194178
0.00014743093003738393
0.00012262946517128183
0.00010885087357900291
9.782800030517979e-05
8.68051270313566e-05
6.751509880216611e-05
4.546935225451981e-05
3.444647898069667e-05
2.8935042343785094e-05
2.3423605706873515e-05
9.64501411459459e-06
-6.889295796140132e-06
-1.7912169069963278e-05
-1.7912169069963278e-05
-1.5156450751507488e-05
-2.342360570687485e-05
-3.4446478980697995e-05
-3.720219729915378e-05
-3.720219729915378e-05
-3.4446478980697995e-05
-3.4446478980697995e-05
-4.2713633936065354e-05
-5.098078889143272e-05
-4.8225070572976926e-05
-4.2713633936065354e-05
-4.2713633936065354e-05
-4.8225070572976926e-05
-5.3736507209888505e-05
-4.8225070572976926e-05
-4.2713633936065354e-05
-3.995791561760957e-05
-4.8225070572976926e-05
-5.9247943846800084e-05
-6.200366216525588e-05
-5.6492225528344285e-05
-5.098078889143272e-05
-5.6492225528344285e-05
-5.9247943846800084e-05
-5.9247943846800084e-05
-5.6492225528344285e-05
-5.098078889143272e-05
-5.3736507209888505e-05
-6.751509880216745e-05
-6.751509880216745e-05
-6.475938048371164e-05
-5.9247943846800084e-05
-6.200366216525588e-05
-7.57822537575348e-05
-7.85379720759906e-05
-7.302653543907902e-05
-6.751509880216745e-05
-6.751509880216745e-05
-7.57822537575348e-05
-8.129369039444639e-05
-8.129369039444639e-05
-7.57822537575348e-05
-7.302653543907902e-05
-7.85379720759906e-05
-8.404940871290214e-05
-8.129369039444639e-05
-7.027081712062322e-05
-6.751509880216745e-05
-7.85379720759906e-05
-8.680512703135793e-05
-8.680512703135793e-05
-7.027081712062322e-05
-7.57822537575348e-05
-8.404940871290214e-05
-8.129369039444639e-05
-7.57822537575348e-05
-7.302653543907902e-05
-7.027081712062322e-05
-6.751509880216745e-05
-5.6492225528344285e-05
-5.098078889143272e-05
-4.5469352254521147e-05
-4.5469352254521147e-05
-4.8225070572976926e-05
-4.8225070572976926e-05
-3.4446478980697995e-05
-1.240073243305171e-05
-6.889295796140132e-06
-2.066788738841907e-05
-2.6179324025330647e-05
-1.7912169069963278e-05
-1.7912169069963278e-05
-2.342360570687485e-05
-4.2713633936065354e-05
-6.475938048371164e-05
-6.751509880216745e-05
-6.751509880216745e-05
-6.200366216525588e-05
-7.027081712062322e-05
-8.129369039444639e-05
-8.404940871290214e-05
-8.129369039444639e-05
-8.129369039444639e-05
-8.129369039444639e-05
-8.956084534981374e-05
-9.507228198672531e-05
-9.231656366826955e-05
-8.680512703135793e-05
-8.680512703135793e-05
-8.956084534981374e-05
-9.78280003051811e-05
-9.78280003051811e-05
-0.00010058371862363688
-8.680512703135793e-05
-3.169076066224221e-05
6.751509880216611e-05
0.0002135681696803228
0.0004615828183413437
0.0008253376363775078
0.001178069581139848
0.0013048326237888143
0.001089886594949263
0.0005883458609903097
-1.7912169069963278e-05
-0.00045331566338597764
-0.0005745672693980323
-0.00048638428320744705
-0.0003430869306477461
-0.0002218353246356915
-0.00017223239490348733
-0.00017223239490348733
-0.00016672095826657574
-0.00015569808499275262
-0.00014467521171892948
-0.0001391637750820179
-0.0001364080567635621
-0.00013089662012665053
-0.0001198737468528274
-0.00010609515526054846
-0.00010885087357900426
-0.00011436231021591582
-0.00011160659189746003
-0.00010333943694209268
-9.78280003051811e-05
-0.00010058371862363688
-0.00010333943694209268
-9.507228198672531e-05
-8.956084534981374e-05
-8.404940871290214e-05
-8.680512703135793e-05
-8.956084534981374e-05
-8.404940871290214e-05
-7.57822537575348e-05
-6.751509880216745e-05
-7.027081712062322e-05
-7.57822537575348e-05
-7.302653543907902e-05
-6.475938048371164e-05
-5.9247943846800084e-05
-5.6492225528344285e-05
-5.9247943846800084e-05
-5.6492225528344285e-05
-5.3736507209888505e-05
-4.5469352254521147e-05
-3.995791561760957e-05
-4.2713633936065354e-05
-3.995791561760957e-05
-3.4446478980697995e-05
-2.342360570687485e-05
-1.5156450751507488e-05
-1.5156450751507488e-05
-1.5156450751507488e-05
-4.133577477684346e-06
1.2400732433050376e-05
2.8935042343785094e-05
3.720219729915245e-05
4.271363393606403e-05
6.475938048371032e-05
8.956084534981241e-05
0.00010885087357900291
0.00012262946517128183
0.00013089662012664922
0.00014467521171892812
0.00016120952162966288
0.00017774383154039756
0.0001832552681773092
0.0001832552681773092
0.00018601098649576498
0.00019427814145113231
0.00020254529640649968
0.00019427814145113231
0.000172232394903486
0.00015294236667429551
0.00014191949340047234
0.00013640805676356078
0.00011711802853437029
8.956084534981241e-05
7.02708171206219e-05
5.9247943846798756e-05
5.373650720988717e-05
4.546935225451981e-05
2.3423605706873515e-05
4.133577477683014e-06
-1.377859159228559e-06
1.3778591592272275e-06
1.3778591592272275e-06
-9.64501411459592e-06
-2.342360570687485e-05
-2.342360570687485e-05
-2.066788738841907e-05
-2.6179324025330647e-05
-3.720219729915378e-05
-4.2713633936065354e-05
-3.995791561760957e-05
-3.169076066224221e-05
-3.169076066224221e-05
-3.995791561760957e-05
-4.2713633936065354e-05
-3.4446478980697995e-05
-2.8935042343786426e-05
-2.8935042343786426e-05
-3.720219729915378e-05
-4.2713633936065354e-05
-3.995791561760957e-05
-3.4446478980697995e-05
-3.169076066224221e-05
-3.720219729915378e-05
-3.995791561760957e-05
-4.2713633936065354e-05
-3.720219729915378e-05
-3.4446478980697995e-05
-4.2713633936065354e-05
-5.3736507209888505e-05
-5.6492225528344285e-05
-5.098078889143272e-05
-4.5469352254521147e-05
-5.098078889143272e-05
-5.9247943846800084e-05
-5.9247943846800084e-05
-5.6492225528344285e-05
-5.098078889143272e-05
-5.098078889143272e-05
-6.200366216525588e-05
-6.751509880216745e-05
-6.475938048371164e-05
-5.9247943846800084e-05
-5.9247943846800084e-05
-6.475938048371164e-05
-7.027081712062322e-05
-6.751509880216745e-05
-6.200366216525588e-05
-5.9247943846800084e-05
-6.751509880216745e-05
-7.57822537575348e-05
-7.57822537575348e-05
-7.027081712062322e-05
-6.751509880216745e-05
-7.302653543907902e-05
-7.57822537575348e-05
-7.027081712062322e-05
-6.475938048371164e-05
-5.9247943846800084e-05
-6.475938048371164e-05
-7.302653543907902e-05
-6.751509880216745e-05
-4.8225070572976926e-05
-3.720219729915378e-05
-3.995791561760957e-05
-4.2713633936065354e-05
-4.2713633936065354e-05
-3.4446478980697995e-05
-1.7912169069963278e-05
4.133577477683014e-06
1.3778591592272275e-06
-1.240073243305171e-05
-1.240073243305171e-05
-4.133577477684346e-06
-1.7912169069963278e-05
-3.4446478980697995e-05
-4.2713633936065354e-05
-4.5469352254521147e-05
-4.8225070572976926e-05
-6.200366216525588e-05
-7.302653543907902e-05
-7.302653543907902e-05
-6.751509880216745e-05
-6.751509880216745e-05
-7.027081712062322e-05
-7.85379720759906e-05
-7.85379720759906e-05
-7.57822537575348e-05
-7.302653543907902e-05
-7.57822537575348e-05
-8.404940871290214e-05
-8.956084534981374e-05
-8.404940871290214e-05
-7.85379720759906e-05
-8.680512703135793e-05
-8.956084534981374e-05
-4.2713633936065354e-05
5.373650720988717e-05
0.00019427814145113231
0.0004009570153353164
0.0007095974670023644
0.001089886594949263
0.001335145525291828
0.0012662525673304335
0.0008363605096513305
0.00017774383154039756
-0.00037339983215075977
-0.0005855901426718552
-0.0005607886778057534
-0.00045055994506752175
-0.0003403312123292903
-0.00023561391622797047
-0.0001777438315403989
-0.00015569808499275262
-0.000150186648355841
-0.00014743093003738526
-0.00014743093003738526
-0.0001391637750820179
-0.00012538518348973897
-0.00011160659189746003
-0.00010885087357900426
-0.00011160659189746003
-0.00011160659189746003
-0.00010058371862363688
-8.956084534981374e-05
-8.680512703135793e-05
-8.956084534981374e-05
-8.956084534981374e-05
-8.404940871290214e-05
-7.85379720759906e-05
-7.57822537575348e-05
-8.129369039444639e-05
-8.404940871290214e-05
-7.85379720759906e-05
-6.751509880216745e-05
-6.475938048371164e-05
-6.475938048371164e-05
-6.475938048371164e-05
-6.200366216525588e-05
-5.098078889143272e-05
-3.995791561760957e-05
-4.2713633936065354e-05
-4.2713633936065354e-05
-3.169076066224221e-05
-2.342360570687485e-05
-2.342360570687485e-05
-2.6179324025330647e-05
-1.7912169069963278e-05
-9.64501411459592e-06
4.133577477683014e-06
9.64501411459459e-06
4.133577477683014e-06
6.8892957961388014e-06
2.3423605706873515e-05
3.9957915617608246e-05
5.649222552834297e-05
7.02708171206219e-05
8.404940871290084e-05
0.00010609515526054714
0.00013365233844510492
0.00015845380331120705
0.00017498811322194178
0.00018876670481422076
0.000210812451361867
0.00023561391622796914
0.0002549039444571596
0.00026041538109407124
0.000263171099412527
0.0002741939726863501
0.0002824611276417174
0.0002852168459601733
0.00027143825436789435
0.00024663678950179223
0.0002218353246356902
0.00020254529640649968
0.0001832552681773092
0.00015018664835583973
0.00011987374685282605
9.782800030517979e-05
8.129369039444505e-05
7.02708171206219e-05
5.373650720988717e-05
2.8935042343785094e-05
1.2400732433050376e-05
6.8892957961388014e-06
9.64501411459459e-06
9.64501411459459e-06
-1.377859159228559e-06
-1.240073243305171e-05
-1.5156450751507488e-05
-9.64501411459592e-06
-4.133577477684346e-06
-9.64501411459592e-06
-1.5156450751507488e-05
-1.5156450751507488e-05
-9.64501411459592e-06
-4.133577477684346e-06
-4.133577477684346e-06
-1.240073243305171e-05
-1.240073243305171e-05
-4.133577477684346e-06
1.3778591592272275e-06
-4.133577477684346e-06
-1.240073243305171e-05
-2.066788738841907e-05
-1.5156450751507488e-05
-1.240073243305171e-05
-1.7912169069963278e-05
-2.8935042343786426e-05
-3.169076066224221e-05
-2.6179324025330647e-05
-2.6179324025330647e-05
-3.4446478980697995e-05
-4.5469352254521147e-05
-4.5469352254521147e-05
-3.995791561760957e-05
-3.995791561760957e-05
-5.098078889143272e-05
-5.9247943846800084e-05
-5.6492225528344285e-05
-5.098078889143272e-05
-4.5469352254521147e-05
-5.098078889143272e-05
-6.200366216525588e-05
-6.200366216525588e-05
-5.6492225528344285e-05
-5.3736507209888505e-05
-5.6492225528344285e-05
-6.475938048371164e-05
-6.751509880216745e-05
-5.9247943846800084e-05
-5.3736507209888505e-05
-5.6492225528344285e-05
-6.200366216525588e-05
-6.475938048371164e-05
-6.475938048371164e-05
-5.9247943846800084e-05
-6.200366216525588e-05
-6.751509880216745e-05
-7.302653543907902e-05
-7.302653543907902e-05
-6.475938048371164e-05
-5.9247943846800084e-05
-7.027081712062322e-05
-7.57822537575348e-05
-6.751509880216745e-05
-5.098078889143272e-05
-3.995791561760957e-05
-4.2713633936065354e-05
-4.5469352254521147e-05
-4.2713633936065354e-05
-3.4446478980697995e-05
-2.342360570687485e-05
-1.5156450751507488e-05
-9.64501411459592e-06
-1.240073243305171e-05
-1.240073243305171e-05
-6.889295796140132e-06
-6.889295796140132e-06
-1.5156450751507488e-05
-2.6179324025330647e-05
-2.8935042343786426e-05
-3.4446478980697995e-05
-4.5469352254521147e-05
-6.475938048371164e-05
-7.027081712062322e-05
-7.027081712062322e-05
-6.475938048371164e-05
-5.9247943846800084e-05
-7.027081712062322e-05
-7.85379720759906e-05
-7.57822537575348e-05
-7.57822537575348e-05
-7.027081712062322e-05
-7.57822537575348e-05
-8.404940871290214e-05
-8.404940871290214e-05
-7.57822537575348e-05
-8.129369039444639e-05
-9.507228198672531e-05
-8.956084534981374e-05
-2.6179324025330647e-05
8.404940871290084e-05
0.00023285819790951333
0.0004505599450675205
0.0007895132982375822
0.0011835810177767598
0.0014150613565270462
0.001285542595559624
0.0008032918898298613
0.00011711802853437029
-0.0003954455786984061
-0.0005635443961242091
-0.0005332314946211955
-0.000447804226749066
-0.0003485983672846577
-0.00023285819790951464
-0.00016672095826657574
-0.00015294236667429682
-0.00015294236667429682
-0.000150186648355841
-0.00014191949340047367
-0.00012814090180819475
-0.00011436231021591582
-0.00011436231021591582
-0.0001171180285343716
-0.00011436231021591582
-0.00010333943694209268
-9.507228198672531e-05
-9.507228198672531e-05
-0.00010058371862363688
-9.507228198672531e-05
-8.680512703135793e-05
-7.85379720759906e-05
-7.57822537575348e-05
-7.85379720759906e-05
-8.404940871290214e-05
-8.129369039444639e-05
-7.027081712062322e-05
-6.751509880216745e-05
-7.027081712062322e-05
-6.751509880216745e-05
-5.9247943846800084e-05
-4.8225070572976926e-05
-3.995791561760957e-05
-4.5469352254521147e-05
-4.8225070572976926e-05
-4.5469352254521147e-05
-3.720219729915378e-05
-2.8935042343786426e-05
-2.6179324025330647e-05
-2.6179324025330647e-05
-2.066788738841907e-05
-1.240073243305171e-05
1.3778591592272275e-06
4.133577477683014e-06
4.133577477683014e-06
1.2400732433050376e-05
2.6179324025329308e-05
4.271363393606403e-05
5.098078889143139e-05
5.9247943846798756e-05
7.578225375753347e-05
9.507228198672396e-05
0.0001253851834897376
0.00014743093003738393
0.00015845380331120705
0.00020530101472495543
0.00023285819790951333
0.00025214822613870384
0.00026041538109407124
0.0002686825360494386
0.0002852168459601733
0.000301751155870908
0.00031001831082627527
0.00029623971923399637
0.00027970540932326175
0.000263171099412527
0.00024663678950179223
0.00022459104295414594
0.00019152242313267648
0.00015294236667429551
0.0001253851834897376
0.00010609515526054714
8.68051270313566e-05
6.200366216525454e-05
3.9957915617608246e-05
2.066788738841773e-05
1.7912169069961946e-05
1.5156450751506162e-05
1.3778591592272275e-06
-1.240073243305171e-05
-2.066788738841907e-05
-1.7912169069963278e-05
-1.240073243305171e-05
-1.240073243305171e-05
-2.066788738841907e-05
-2.342360570687485e-05
-2.066788738841907e-05
-1.240073243305171e-05
-9.64501411459592e-06
-1.5156450751507488e-05
-2.066788738841907e-05
-1.5156450751507488e-05
-4.133577477684346e-06
1.3778591592272275e-06
-9.64501411459592e-06
-1.7912169069963278e-05
-2.066788738841907e-05
-9.64501411459592e-06
-9.64501411459592e-06
-1.5156450751507488e-05
-2.342360570687485e-05
-2.6179324025330647e-05
-2.342360570687485e-05
-2.066788738841907e-05
-2.342360570687485e-05
-3.720219729915378e-05
-4.5469352254521147e-05
-4.5469352254521147e-05
-3.995791561760957e-05
-4.2713633936065354e-05
-5.3736507209888505e-05
-5.6492225528344285e-05
-5.3736507209888505e-05
-5.3736507209888505e-05
-5.098078889143272e-05
-5.9247943846800084e-05
-6.751509880216745e-05
-7.027081712062322e-05
-6.751509880216745e-05
-6.475938048371164e-05
-7.027081712062322e-05
-7.85379720759906e-05
-7.85379720759906e-05
-6.475938048371164e-05
-7.027081712062322e-05
-8.129369039444639e-05
-8.680512703135793e-05
-8.404940871290214e-05
-7.57822537575348e-05
-7.57822537575348e-05
-8.404940871290214e-05
-8.404940871290214e-05
-8.129369039444639e-05
-7.302653543907902e-05
-7.302653543907902e-05
-8.129369039444639e-05
-8.680512703135793e-05
-8.404940871290214e-05
-7.027081712062322e-05
-5.9247943846800084e-05
-5.9247943846800084e-05
-6.200366216525588e-05
-5.9247943846800084e-05
-4.8225070572976926e-05
-3.995791561760957e-05
-3.995791561760957e-05
-3.720219729915378e-05
-2.066788738841907e-05
-6.889295796140132e-06
-9.64501411459592e-06
-1.7912169069963278e-05
-2.342360570687485e-05
-2.342360570687485e-05
-2.6179324025330647e-05
-3.169076066224221e-05
-5.098078889143272e-05
-7.027081712062322e-05
-7.57822537575348e-05
-7.302653543907902e-05
-7.027081712062322e-05
-7.57822537575348e-05
-8.404940871290214e-05
-8.680512703135793e-05
-8.680512703135793e-05
-8.129369039444639e-05
-8.404940871290214e-05
-9.507228198672531e-05
-0.00010058371862363688
-9.507228198672531e-05
-8.956084534981374e-05
-8.956084534981374e-05
-9.507228198672531e-05
-0.00010058371862363688
-0.00010609515526054846
-0.00010885087357900426
-7.57822537575348e-05
6.8892957961388014e-06
0.00012814090180819342
0.00031001831082627527
0.0006103916075379561
0.0010099707637140451
0.0013434126802471958
0.0013819927367055766
0.0010595736934462493
0.0004505599450675205
-0.00018876670481422206
-0.0005222086213473721
-0.000577322987716488
-0.0004918957198443586
-0.0003844227054245829
-0.0002686825360494398
-0.00019427814145113364
-0.00017498811322194308
-0.00016672095826657574
-0.00015569808499275262
-0.000150186648355841
-0.000150186648355841
-0.00014743093003738526
-0.0001391637750820179
-0.0001226294651712832
-0.0001171180285343716
-0.0001198737468528274
-0.0001226294651712832
-0.00011436231021591582
-0.00010333943694209268
-9.78280003051811e-05
-0.00010058371862363688
-0.00010885087357900426
-0.00010609515526054846
-9.507228198672531e-05
-8.680512703135793e-05
-8.680512703135793e-05
-8.956084534981374e-05
-8.956084534981374e-05
-8.129369039444639e-05
-7.027081712062322e-05
-6.475938048371164e-05
-6.751509880216745e-05
-7.027081712062322e-05
-6.200366216525588e-05
-5.3736507209888505e-05
-5.098078889143272e-05
-5.3736507209888505e-05
-5.6492225528344285e-05
-4.8225070572976926e-05
-3.169076066224221e-05
-2.066788738841907e-05
-2.8935042343786426e-05
-2.8935042343786426e-05
-2.066788738841907e-05
-6.889295796140132e-06
4.133577477683014e-06
9.64501411459459e-06
1.5156450751506162e-05
2.8935042343785094e-05
5.098078889143139e-05
7.578225375753347e-05
8.956084534981241e-05
0.00010058371862363556
0.00012262946517128183
0.00015294236667429551
0.00017774383154039756
0.00019978957808804387
0.0002135681696803228
0.00022734676127260172
0.0002493925078202481
0.00026592681773098274
0.0002769496910048059
0.0002741939726863501
0.0002769496910048059
0.00027970540932326175
0.0002769496910048059
0.00026041538109407124
0.00023561391622796914
0.00020530101472495543
0.00017774383154039756
0.00015845380331120705
0.00013916377508201656
0.00011160659189745871
8.129369039444505e-05
5.098078889143139e-05
4.271363393606403e-05
2.3423605706873515e-05
4.133577477683014e-06
-4.133577477684346e-06
-4.133577477684346e-06
-1.377859159228559e-06
-9.64501411459592e-06
-2.6179324025330647e-05
-2.8935042343786426e-05
-2.6179324025330647e-05
-2.066788738841907e-05
-2.342360570687485e-05
-3.169076066224221e-05
-3.169076066224221e-05
-2.6179324025330647e-05
-2.066788738841907e-05
-1.5156450751507488e-05
-2.066788738841907e-05
-2.8935042343786426e-05
-2.342360570687485e-05
-1.7912169069963278e-05
-1.7912169069963278e-05
-2.342360570687485e-05
-2.8935042343786426e-05
-3.169076066224221e-05
-2.6179324025330647e-05
-2.342360570687485e-05
-2.6179324025330647e-05
-3.720219729915378e-05
-4.5469352254521147e-05
-4.2713633936065354e-05
-3.995791561760957e-05
-4.2713633936065354e-05
-5.3736507209888505e-05
-5.6492225528344285e-05
-5.3736507209888505e-05
-5.098078889143272e-05
-5.098078889143272e-05
-5.9247943846800084e-05
-6.475938048371164e-05
-6.475938048371164e-05
-6.200366216525588e-05
-6.751509880216745e-05
-7.57822537575348e-05
-7.85379720759906e-05
-7.57822537575348e-05
-7.302653543907902e-05
-7.027081712062322e-05
-7.57822537575348e-05
-8.404940871290214e-05
-8.129369039444639e-05
-7.302653543907902e-05
-6.751509880216745e-05
-7.57822537575348e-05
-8.404940871290214e-05
-8.404940871290214e-05
-7.85379720759906e-05
-7.027081712062322e-05
-7.57822537575348e-05
-8.956084534981374e-05
-9.231656366826955e-05
-8.404940871290214e-05
-7.57822537575348e-05
-7.57822537575348e-05
-7.85379720759906e-05
-7.027081712062322e-05
-5.9247943846800084e-05
-5.098078889143272e-05
-5.098078889143272e-05
-5.3736507209888505e-05
-4.5469352254521147e-05
-2.6179324025330647e-05
-9.64501411459592e-06
-2.066788738841907e-05
-3.169076066224221e-05
-2.342360570687485e-05
-1.5156450751507488e-05
-1.7912169069963278e-05
-3.4446478980697995e-05
-5.9247943846800084e-05
-7.027081712062322e-05
-7.027081712062322e-05
-7.027081712062322e-05
-7.85379720759906e-05
-8.680512703135793e-05
-8.404940871290214e-05
-7.85379720759906e-05
-7.57822537575348e-05
-8.129369039444639e-05
-9.231656366826955e-05
-9.507228198672531e-05
-9.231656366826955e-05
-8.956084534981374e-05
-8.956084534981374e-05
-9.507228198672531e-05
-0.00010058371862363688
-9.78280003051811e-05
-9.507228198672531e-05
-0.00011160659189746003
-0.00011160659189746003
-5.098078889143272e-05
5.9247943846798756e-05
0.00023010247959105753
0.00048362856488898997
0.0008528948195620654
0.0012331839475089635
0.0013985270466163114
0.0011973596093690386
0.0006737731288624392
-1.240073243305171e-05
-0.0004698499732967123
-0.0005883458609903113
-0.0005222086213473721
-0.00041197988860914084
-0.0003045068741893651
-0.0002218353246356915
-0.00019152242313267784
-0.00017498811322194308
-0.00016396523994811996
-0.00015569808499275262
-0.0001612095216296642
-0.0001612095216296642
-0.000150186648355841
-0.00014191949340047367
-0.00013089662012665053
-0.0001336523384451063
-0.0001364080567635621
-0.00012814090180819475
-0.0001171180285343716
-0.00011160659189746003
-0.0001171180285343716
-0.0001198737468528274
-0.0001171180285343716
-0.00010609515526054846
-0.00010058371862363688
-0.00010333943694209268
-0.00010058371862363688
-9.231656366826955e-05
-8.129369039444639e-05
-7.85379720759906e-05
-8.404940871290214e-05
-8.680512703135793e-05
-7.85379720759906e-05
-6.751509880216745e-05
-6.751509880216745e-05
-7.302653543907902e-05
-7.302653543907902e-05
-6.751509880216745e-05
-5.6492225528344285e-05
-5.3736507209888505e-05
-5.9247943846800084e-05
-5.9247943846800084e-05
-4.8225070572976926e-05
-3.720219729915378e-05
-2.8935042343786426e-05
-2.6179324025330647e-05
-2.342360570687485e-05
-1.240073243305171e-05
4.133577477683014e-06
2.3423605706873515e-05
3.169076066224089e-05
3.720219729915245e-05
5.649222552834297e-05
8.404940871290084e-05
0.00011436231021591448
0.00012814090180819342
0.00013916377508201656
0.00016120952162966288
0.0001832552681773092
0.00020805673304341124
0.0002190796063172344
0.00021632388799877858
0.0002190796063172344
0.00023285819790951333
0.00023561391622796914
0.00023285819790951333
0.00021632388799877858
0.0001970338597695881
0.00018049954985885336
0.00016396523994811866
0.00014191949340047234
0.00010885087357900291
7.853797207598924e-05
6.200366216525454e-05
5.373650720988717e-05
3.9957915617608246e-05
2.066788738841773e-05
1.3778591592272275e-06
-6.889295796140132e-06
-1.240073243305171e-05
-1.5156450751507488e-05
-2.6179324025330647e-05
-4.2713633936065354e-05
-4.8225070572976926e-05
-4.5469352254521147e-05
-4.2713633936065354e-05
-4.5469352254521147e-05
-5.6492225528344285e-05
-5.9247943846800084e-05
-5.098078889143272e-05
-4.2713633936065354e-05
-4.8225070572976926e-05
-5.3736507209888505e-05
-5.6492225528344285e-05
-4.8225070572976926e-05
-4.8225070572976926e-05
-5.3736507209888505e-05
-6.200366216525588e-05
-5.6492225528344285e-05
-5.098078889143272e-05
-4.5469352254521147e-05
-5.9247943846800084e-05
-6.751509880216745e-05
-6.751509880216745e-05
-6.200366216525588e-05
-6.200366216525588e-05
-6.751509880216745e-05
-7.57822537575348e-05
-7.57822537575348e-05
-7.027081712062322e-05
-6.751509880216745e-05
-7.57822537575348e-05
-8.404940871290214e-05
-8.680512703135793e-05
-8.404940871290214e-05
-8.129369039444639e-05
-8.129369039444639e-05
-8.956084534981374e-05
-8.956084534981374e-05
-8.680512703135793e-05
-8.129369039444639e-05
-8.404940871290214e-05
-9.231656366826955e-05
-9.78280003051811e-05
-9.507228198672531e-05
-8.956084534981374e-05
-8.680512703135793e-05
-9.507228198672531e-05
-0.00010058371862363688
-9.507228198672531e-05
-8.956084534981374e-05
-8.404940871290214e-05
-9.78280003051811e-05
-0.00010609515526054846
-0.00010609515526054846
-9.507228198672531e-05
-8.680512703135793e-05
-9.231656366826955e-05
-0.00010333943694209268
-0.00010609515526054846
-9.78280003051811e-05
-8.129369039444639e-05
-7.027081712062322e-05
-7.302653543907902e-05
-7.85379720759906e-05
-7.302653543907902e-05
-6.200366216525588e-05
-5.9247943846800084e-05
-5.9247943846800084e-05
-5.098078889143272e-05
-3.995791561760957e-05
-3.4446478980697995e-05
-3.4446478980697995e-05
-3.995791561760957e-05
-4.5469352254521147e-05
-5.098078889143272e-05
-5.9247943846800084e-05
-7.027081712062322e-05
-8.129369039444639e-05
-9.231656366826955e-05
-9.507228198672531e-05
-9.507228198672531e-05
-8.956084534981374e-05
-0.00010885087357900426
-0.00010885087357900426
-0.00010333943694209268
-0.00010333943694209268
-0.00010885087357900426
-0.0001171180285343716
-0.0001198737468528274
-0.00011160659189746003
-0.00010885087357900426
-0.00011160659189746003
-0.0001171180285343716
-0.00013089662012665053
-0.0001364080567635621
-9.78280003051811e-05
-1.5156450751507488e-05
8.956084534981241e-05
0.00026041538109407124
0.0005525215228503846
0.0009410778057526506
0.001246962539101243
0.001244206820782787
0.0008804520027466232
0.0003127740291447311
-0.00024939250782024937
-0.0005387429312581068
-0.0005635443961242091
-0.0004615828183413449
-0.0003293083390554673
-0.00022734676127260308
-0.00018876670481422206
-0.00018325526817731047
-0.00018876670481422206
-0.00018325526817731047
-0.00017223239490348733
-0.0001612095216296642
-0.0001584538033112084
-0.0001584538033112084
-0.00015569808499275262
-0.00014467521171892948
-0.0001336523384451063
-0.00013089662012665053
-0.0001364080567635621
-0.0001391637750820179
-0.0001364080567635621
-0.00012538518348973897
-0.0001198737468528274
-0.00012538518348973897
-0.00012814090180819475
-0.0001226294651712832
-0.00011436231021591582
-0.00010609515526054846
-0.00011160659189746003
-0.0001198737468528274
-0.0001171180285343716
-0.00010885087357900426
-0.00010058371862363688
-9.78280003051811e-05
-0.00010333943694209268
-0.00010058371862363688
-8.956084534981374e-05
-8.404940871290214e-05
-8.956084534981374e-05
-9.78280003051811e-05
-9.78280003051811e-05
-8.680512703135793e-05
-7.57822537575348e-05
-7.302653543907902e-05
-7.85379720759906e-05
-7.027081712062322e-05
-5.6492225528344285e-05
-4.5469352254521147e-05
-4.2713633936065354e-05
-3.995791561760957e-05
-2.8935042343786426e-05
-9.64501411459592e-06
6.8892957961388014e-06
1.5156450751506162e-05
2.6179324025329308e-05
4.546935225451981e-05
6.751509880216611e-05
8.956084534981241e-05
0.00010058371862363556
0.00010333943694209132
0.00011711802853437029
0.00013916377508201656
0.00015294236667429551
0.00015294236667429551
0.00015018664835583973
0.00015294236667429551
0.0001556980849927513
0.0001556980849927513
0.00014191949340047234
0.00011436231021591448
9.507228198672396e-05
8.129369039444505e-05
7.02708171206219e-05
5.649222552834297e-05
3.720219729915245e-05
2.066788738841773e-05
1.5156450751506162e-05
4.133577477683014e-06
-1.377859159228559e-06
-1.7912169069963278e-05
-3.169076066224221e-05
-3.995791561760957e-05
-3.995791561760957e-05
-4.2713633936065354e-05
-5.6492225528344285e-05
-6.475938048371164e-05
-6.475938048371164e-05
-6.200366216525588e-05
-5.9247943846800084e-05
-6.751509880216745e-05
-7.85379720759906e-05
-8.404940871290214e-05
-7.57822537575348e-05
-7.027081712062322e-05
-7.302653543907902e-05
-7.57822537575348e-05
-7.85379720759906e-05
-7.302653543907902e-05
-6.751509880216745e-05
-6.751509880216745e-05
-7.85379720759906e-05
-8.404940871290214e-05
-8.129369039444639e-05
-7.302653543907902e-05
-7.57822537575348e-05
-8.129369039444639e-05
-8.680512703135793e-05
-8.404940871290214e-05
-7.85379720759906e-05
-7.302653543907902e-05
-8.129369039444639e-05
-9.231656366826955e-05
-9.231656366826955e-05
-8.680512703135793e-05
-9.231656366826955e-05
-0.00010058371862363688
-0.00010058371862363688
-9.231656366826955e-05
-8.404940871290214e-05
-8.680512703135793e-05
-9.78280003051811e-05
-0.00010058371862363688
-9.78280003051811e-05
-9.231656366826955e-05
-9.507228198672531e-05
-0.00010058371862363688
-0.00010333943694209268
-0.00010333943694209268
-9.78280003051811e-05
-9.78280003051811e-05
-0.00010609515526054846
-0.00011160659189746003
-0.00010609515526054846
-9.78280003051811e-05
-0.00010058371862363688
-0.00010885087357900426
-0.0001171180285343716
-0.00011436231021591582
-0.00010333943694209268
-9.78280003051811e-05
-0.00010058371862363688
-0.00010333943694209268
-9.231656366826955e-05
-7.85379720759906e-05
-7.302653543907902e-05
-7.85379720759906e-05
-8.129369039444639e-05
-7.57822537575348e-05
-6.475938048371164e-05
-4.8225070572976926e-05
-3.4446478980697995e-05
-4.5469352254521147e-05
-5.6492225528344285e-05
-4.8225070572976926e-05
-3.995791561760957e-05
-4.5469352254521147e-05
-6.475938048371164e-05
-8.680512703135793e-05
-9.507228198672531e-05
-8.956084534981374e-05
-8.680512703135793e-05
-9.78280003051811e-05
-0.00010885087357900426
-0.00011160659189746003
-0.00010333943694209268
-0.00010058371862363688
-0.00010885087357900426
-0.0001171180285343716
-0.00011436231021591582
-0.00010609515526054846
-0.00010333943694209268
-0.00011160659189746003
-0.0001198737468528274
-0.0001198737468528274
-0.00011436231021591582
-0.0001198737468528274
-0.00013089662012665053
-0.00010333943694209268
-2.066788738841907e-05
0.00010058371862363556
0.0002852168459601733
0.0005773229877164866
0.001246962539101243
0.001246962539101243
0.0008942305943389022
0.0003127740291447311
-0.00027419397268635144
-0.0005718115510795765
-0.0005800787060349438
-0.00045055994506752175
-0.0003127740291447324
-0.00022459104295414727
-0.00020254529640650095
-0.00019427814145113364
-0.00018325526817731047
-0.00017223239490348733
-0.00016396523994811996
-0.00016396523994811996
-0.0001612095216296642
-0.000150186648355841
-0.0001391637750820179
-0.0001364080567635621
-0.00014191949340047367
-0.00014467521171892948
-0.0001364080567635621
-0.00012814090180819475
-0.00012538518348973897
-0.0001336523384451063
-0.0001336523384451063
-0.0001226294651712832
-0.00011436231021591582
-0.00011160659189746003
-0.0001171180285343716
-0.0001198737468528274
-0.00011436231021591582
-0.00010609515526054846
-0.00010058371862363688
-0.00010058371862363688
-0.00010333943694209268
-9.78280003051811e-05
-8.956084534981374e-05
-8.129369039444639e-05
-8.404940871290214e-05
-8.956084534981374e-05
-8.956084534981374e-05
-8.129369039444639e-05
-7.027081712062322e-05
-7.027081712062322e-05
-7.027081712062322e-05
-6.751509880216745e-05
-6.200366216525588e-05
-4.8225070572976926e-05
-4.2713633936065354e-05
-4.2713633936065354e-05
-3.995791561760957e-05
-2.6179324025330647e-05
-1.240073243305171e-05
-1.377859159228559e-06
4.133577477683014e-06
1.7912169069961946e-05
3.9957915617608246e-05
6.200366216525454e-05
7.853797207598924e-05
8.956084534981241e-05
0.00010058371862363556
0.00011987374685282605
0.00014191949340047234
0.00015294236667429551
0.00015845380331120705
0.00016396523994811866
0.0001694766765850302
0.00018601098649576498
0.00018049954985885336
0.00015845380331120705
0.00014467521171892812
0.00013640805676356078
0.00012814090180819342
0.00010609515526054714
8.129369039444505e-05
6.200366216525454e-05
4.82250705729756e-05
4.271363393606403e-05
2.8935042343785094e-05
9.64501411459459e-06
-6.889295796140132e-06
-1.5156450751507488e-05
-1.7912169069963278e-05
-2.6179324025330647e-05
-3.720219729915378e-05
-4.8225070572976926e-05
-4.8225070572976926e-05
-3.995791561760957e-05
-3.995791561760957e-05
-5.098078889143272e-05
-6.200366216525588e-05
-6.200366216525588e-05
-5.6492225528344285e-05
-5.3736507209888505e-05
-5.3736507209888505e-05
-5.9247943846800084e-05
-6.200366216525588e-05
-5.3736507209888505e-05
-4.5469352254521147e-05
-5.098078889143272e-05
-5.9247943846800084e-05
-6.200366216525588e-05
-5.9247943846800084e-05
-5.6492225528344285e-05
-5.9247943846800084e-05
-6.751509880216745e-05
-7.027081712062322e-05
-6.475938048371164e-05
-6.200366216525588e-05
-6.475938048371164e-05
-7.302653543907902e-05
-7.85379720759906e-05
-7.57822537575348e-05
-7.027081712062322e-05
-7.302653543907902e-05
-8.404940871290214e-05
-8.956084534981374e-05
-8.404940871290214e-05
-7.85379720759906e-05
-7.027081712062322e-05
-7.85379720759906e-05
-8.956084534981374e-05
-8.680512703135793e-05
-8.129369039444639e-05
-7.85379720759906e-05
-8.404940871290214e-05
-8.956084534981374e-05
-8.956084534981374e-05
-8.680512703135793e-05
-8.129369039444639e-05
-8.129369039444639e-05
-8.956084534981374e-05
-9.507228198672531e-05
-9.231656366826955e-05
-8.404940871290214e-05
-9.507228198672531e-05
-9.78280003051811e-05
-9.78280003051811e-05
-8.956084534981374e-05
-8.680512703135793e-05
-9.507228198672531e-05
-0.00010058371862363688
-9.78280003051811e-05
-8.129369039444639e-05
-7.027081712062322e-05
-7.027081712062322e-05
-7.027081712062322e-05
-6.751509880216745e-05
-5.6492225528344285e-05
-4.8225070572976926e-05
-4.8225070572976926e-05
-3.995791561760957e-05
-3.169076066224221e-05
-2.6179324025330647e-05
-2.342360570687485e-05
-2.342360570687485e-05
-3.169076066224221e-05
-3.995791561760957e-05
-5.098078889143272e-05
-5.6492225528344285e-05
-6.475938048371164e-05
-8.129369039444639e-05
-9.231656366826955e-05
-8.956084534981374e-05
-8.404940871290214e-05
-8.680512703135793e-05
-9.78280003051811e-05
-0.00010333943694209268
-0.00010058371862363688
-9.507228198672531e-05
-9.231656366826955e-05
-0.00010058371862363688
-0.00010885087357900426
-0.00011160659189746003
-0.00010609515526054846
-0.00010058371862363688
-0.00010609515526054846
-0.0001171180285343716
-0.00011436231021591582
-5.9247943846800084e-05
4.271363393606403e-05
0.00017774383154039756
0.00037615555046921414
0.000687551720454718
0.0010761080033569843
0.0013268783703364606
0.001246962539101243
0.0008005361715114055
0.00014191949340047234
-0.0003954455786984061
-0.0005993687342641343
-0.0005828344243533996
-0.00048362856488899143
-0.000370644113832304
-0.0002549039444571609
-0.00019427814145113364
-0.00017223239490348733
-0.00017498811322194308
-0.0001777438315403989
-0.00016672095826657574
-0.00015294236667429682
-0.0001391637750820179
-0.0001364080567635621
-0.0001391637750820179
-0.00012814090180819475
-0.0001226294651712832
-0.0001226294651712832
-0.00012814090180819475
-0.00012538518348973897
-0.0001171180285343716
-0.00010885087357900426
-0.00010885087357900426
-0.00011160659189746003
-0.00011160659189746003
-0.00010333943694209268
-9.231656366826955e-05
-8.680512703135793e-05
-8.956084534981374e-05
-9.231656366826955e-05
-8.129369039444639e-05
-7.027081712062322e-05
-6.475938048371164e-05
-6.751509880216745e-05
-7.027081712062322e-05
-6.200366216525588e-05
-5.098078889143272e-05
-4.8225070572976926e-05
-5.098078889143272e-05
-5.3736507209888505e-05
-4.5469352254521147e-05
-3.720219729915378e-05
-2.6179324025330647e-05
-2.342360570687485e-05
-2.066788738841907e-05
-1.7912169069963278e-05
-1.377859159228559e-06
1.2400732433050376e-05
2.3423605706873515e-05
3.169076066224089e-05
4.82250705729756e-05
7.30265354390777e-05
9.782800030517979e-05
0.00011436231021591448
0.00012262946517128183
0.00013916377508201656
0.00016396523994811866
0.00019152242313267648
0.00020805673304341124
0.0002190796063172344
0.00022734676127260172
0.00024388107118333642
0.00026041538109407124
0.0002686825360494386
0.00026041538109407124
0.00024388107118333642
0.00023010247959105753
0.0002135681696803228
0.00019427814145113231
0.00016120952162966288
0.00012814090180819342
0.00010333943694209132
8.68051270313566e-05
7.02708171206219e-05
4.82250705729756e-05
2.066788738841773e-05
4.133577477683014e-06
1.3778591592272275e-06
1.3778591592272275e-06
-9.64501411459592e-06
-2.066788738841907e-05
-2.8935042343786426e-05
-2.8935042343786426e-05
-2.066788738841907e-05
-3.169076066224221e-05
-3.720219729915378e-05
-3.4446478980697995e-05
-2.6179324025330647e-05
-2.066788738841907e-05
-2.342360570687485e-05
-2.6179324025330647e-05
-2.6179324025330647e-05
-2.066788738841907e-05
-1.5156450751507488e-05
-2.066788738841907e-05
-3.169076066224221e-05
-3.169076066224221e-05
-2.6179324025330647e-05
-2.6179324025330647e-05
-3.169076066224221e-05
-4.5469352254521147e-05
-4.8225070572976926e-05
-4.8225070572976926e-05
-4.5469352254521147e-05
-4.8225070572976926e-05
-5.6492225528344285e-05
-6.200366216525588e-05
-6.200366216525588e-05
-5.9247943846800084e-05
-5.9247943846800084e-05
-6.751509880216745e-05
-7.027081712062322e-05
-6.751509880216745e-05
-6.475938048371164e-05
-6.475938048371164e-05
-7.302653543907902e-05
-8.404940871290214e-05
-8.680512703135793e-05
-8.129369039444639e-05
-7.85379720759906e-05
-8.680512703135793e-05
-8.956084534981374e-05
-8.680512703135793e-05
-8.129369039444639e-05
-8.129369039444639e-05
-8.680512703135793e-05
-9.78280003051811e-05
-9.78280003051811e-05
-9.231656366826955e-05
-8.680512703135793e-05
-8.956084534981374e-05
-9.507228198672531e-05
-9.507228198672531e-05
-8.956084534981374e-05
-8.129369039444639e-05
-8.129369039444639e-05
-8.956084534981374e-05
-9.507228198672531e-05
-8.956084534981374e-05
-8.129369039444639e-05
-7.302653543907902e-05
-7.027081712062322e-05
-7.302653543907902e-05
-6.751509880216745e-05
-5.6492225528344285e-05
-5.098078889143272e-05
-5.3736507209888505e-05
-5.098078889143272e-05
-3.169076066224221e-05
-2.342360570687485e-05
-2.8935042343786426e-05
-3.4446478980697995e-05
-3.720219729915378e-05
-3.995791561760957e-05
-5.098078889143272e-05
-6.751509880216745e-05
-8.404940871290214e-05
-9.231656366826955e-05
-9.231656366826955e-05
-8.680512703135793e-05
-8.956084534981374e-05
-0.00010058371862363688
-0.00010333943694209268
-9.78280003051811e-05
-8.956084534981374e-05
-8.956084534981374e-05
-0.00010333943694209268
-0.00011160659189746003
-0.00010885087357900426
-0.00010333943694209268
-9.78280003051811e-05
-0.00010058371862363688
-0.00010609515526054846
-0.00011160659189746003
-0.00010333943694209268
-4.5469352254521147e-05
5.098078889143139e-05
0.00019978957808804387
0.0004367813534752416
0.0008088033264667726
0.0012552296940566102
0.0015473358358129234
0.0014811985961699847
0.0010154822003509568
0.0003375754940108332
-0.0001997895780880452
-0.00040371273365377345
-0.0003982012970168618
-0.0003155297474631883
-0.00024388107118333775
-0.00019152242313267784
-0.00017223239490348733
-0.00017498811322194308
-0.0001777438315403989
-0.00017223239490348733
-0.0001612095216296642
-0.0001584538033112084
-0.00016396523994811996
-0.00016396523994811996
-0.0001584538033112084
-0.00014467521171892948
-0.0001364080567635621
-0.0001391637750820179
-0.00014191949340047367
-0.0001364080567635621
-0.00012538518348973897
-0.0001171180285343716
-0.0001226294651712832
-0.00012538518348973897
-0.00012538518348973897
-0.0001171180285343716
-0.00010885087357900426
-0.00010885087357900426
-0.00011436231021591582
-0.00011160659189746003
-0.00010609515526054846
-9.78280003051811e-05
-9.507228198672531e-05
-9.78280003051811e-05
-9.78280003051811e-05
-7.85379720759906e-05
-7.57822537575348e-05
-7.85379720759906e-05
-7.85379720759906e-05
-6.751509880216745e-05
-5.6492225528344285e-05
-4.8225070572976926e-05
-5.098078889143272e-05
-5.9247943846800084e-05
-5.098078889143272e-05
-3.720219729915378e-05
-2.8935042343786426e-05
-2.342360570687485e-05
-2.342360570687485e-05
-1.5156450751507488e-05
4.133577477683014e-06
2.6179324025329308e-05
3.9957915617608246e-05
5.098078889143139e-05
6.475938048371032e-05
8.68051270313566e-05
0.00011160659189745871
0.00012814090180819342
0.00013640805676356078
0.00015018664835583973
0.00016396523994811866
0.00017774383154039756
0.00018876670481422076
0.00019152242313267648
0.00018876670481422076
0.00018876670481422076
0.00018601098649576498
0.000172232394903486
0.00014743093003738393
0.00012262946517128183
0.00010609515526054714
9.23165636682682e-05
8.129369039444505e-05
5.9247943846798756e-05
3.444647898069667e-05
1.7912169069961946e-05
9.64501411459459e-06
1.3778591592272275e-06
-1.240073243305171e-05
-2.342360570687485e-05
-2.6179324025330647e-05
-2.6179324025330647e-05
-2.6179324025330647e-05
-2.8935042343786426e-05
-3.720219729915378e-05
-4.5469352254521147e-05
-3.720219729915378e-05
-3.4446478980697995e-05
-3.720219729915378e-05
-4.2713633936065354e-05
-3.995791561760957e-05
-3.4446478980697995e-05
-2.8935042343786426e-05
-2.6179324025330647e-05
-3.169076066224221e-05
-3.720219729915378e-05
-3.720219729915378e-05
-3.4446478980697995e-05
-3.169076066224221e-05
-3.720219729915378e-05
-4.5469352254521147e-05
-4.2713633936065354e-05
-3.995791561760957e-05
-4.5469352254521147e-05
-5.6492225528344285e-05
-5.9247943846800084e-05
-5.3736507209888505e-05
-5.3736507209888505e-05
-5.9247943846800084e-05
-6.751509880216745e-05
-7.027081712062322e-05
-6.475938048371164e-05
-5.9247943846800084e-05
-6.475938048371164e-05
-7.302653543907902e-05
-8.129369039444639e-05
-7.85379720759906e-05
-7.027081712062322e-05
-7.027081712062322e-05
-8.129369039444639e-05
-8.956084534981374e-05
-8.404940871290214e-05
-7.85379720759906e-05
-7.57822537575348e-05
-8.404940871290214e-05
-8.956084534981374e-05
-8.956084534981374e-05
-8.404940871290214e-05
-7.85379720759906e-05
-8.404940871290214e-05
-9.231656366826955e-05
-8.956084534981374e-05
-8.404940871290214e-05
-7.85379720759906e-05
-8.129369039444639e-05
-9.231656366826955e-05
-9.507228198672531e-05
-8.956084534981374e-05
-8.129369039444639e-05
-7.57822537575348e-05
-7.302653543907902e-05
-7.027081712062322e-05
-6.475938048371164e-05
-5.3736507209888505e-05
-4.8225070572976926e-05
-5.3736507209888505e-05
-5.3736507209888505e-05
-3.720219729915378e-05
-1.7912169069963278e-05
-2.066788738841907e-05
-3.169076066224221e-05
-3.4446478980697995e-05
-2.8935042343786426e-05
-2.8935042343786426e-05
-3.4446478980697995e-05
-5.9247943846800084e-05
-7.85379720759906e-05
-7.85379720759906e-05
-7.57822537575348e-05
-7.302653543907902e-05
-8.129369039444639e-05
-8.956084534981374e-05
-9.231656366826955e-05
-8.956084534981374e-05
-8.129369039444639e-05
-8.404940871290214e-05
-9.78280003051811e-05
-0.00010333943694209268
-0.00010058371862363688
-9.507228198672531e-05
-9.507228198672531e-05
-0.00010333943694209268
-0.00010609515526054846
-0.00011436231021591582
-9.507228198672531e-05
-2.8935042343786426e-05
8.129369039444505e-05
0.00025214822613870384
0.0005304757763027383
0.0009135206225680924
0.0012800311589227123
0.0014040384832532226
0.0011615352712291134
0.0006048801709010444
-7.302653543907902e-05
-0.00048638428320744705
-0.000591101579308767
-0.0005249643396658282
-0.00041749132524605234
-0.00030175115587090934
-0.00021632388799877996
-0.00019152242313267784
-0.00018601098649576628
-0.00017498811322194308
-0.0001612095216296642
-0.00015569808499275262
-0.0001612095216296642
-0.00015569808499275262
-0.00014467521171892948
-0.0001336523384451063
-0.00012814090180819475
-0.00012538518348973897
-0.00012538518348973897
-0.0001198737468528274
-0.00011160659189746003
-0.00010609515526054846
-0.00011160659189746003
-0.0001171180285343716
-0.00011160659189746003
-0.00010058371862363688
-9.231656366826955e-05
-9.231656366826955e-05
-0.00010058371862363688
-9.78280003051811e-05
-8.680512703135793e-05
-7.57822537575348e-05
-7.85379720759906e-05
-8.680512703135793e-05
-8.680512703135793e-05
-7.85379720759906e-05
-7.027081712062322e-05
-6.751509880216745e-05
-7.027081712062322e-05
-6.200366216525588e-05
-4.8225070572976926e-05
-3.995791561760957e-05
-3.4446478980697995e-05
-3.995791561760957e-05
-3.995791561760957e-05
-2.8935042343786426e-05
-1.5156450751507488e-05
-4.133577477684346e-06
-1.377859159228559e-06
1.3778591592272275e-06
1.7912169069961946e-05
3.9957915617608246e-05
5.9247943846798756e-05
7.30265354390777e-05
8.68051270313566e-05
0.00010609515526054714
0.00016396523994811866
0.00018049954985885336
0.00018876670481422076
0.00020805673304341124
0.00023010247959105753
0.0002493925078202481
0.00026041538109407124
0.00026041538109407124
0.000263171099412527
0.00026592681773098274
0.000263171099412527
0.0002493925078202481
0.0002190796063172344
0.00019152242313267648
0.0001694766765850302
0.00014743093003738393
0.0001253851834897376
9.507228198672396e-05
6.200366216525454e-05
4.271363393606403e-05
3.444647898069667e-05
2.3423605706873515e-05
6.8892957961388014e-06
-1.240073243305171e-05
-2.066788738841907e-05
-2.342360570687485e-05
-2.342360570687485e-05
-3.169076066224221e-05
-4.5469352254521147e-05
-5.098078889143272e-05
-4.5469352254521147e-05
-3.995791561760957e-05
-3.995791561760957e-05
-4.2713633936065354e-05
-4.5469352254521147e-05
-3.995791561760957e-05
-3.169076066224221e-05
-3.169076066224221e-05
-3.995791561760957e-05
-4.5469352254521147e-05
-4.8225070572976926e-05
-3.995791561760957e-05
-3.720219729915378e-05
-3.995791561760957e-05
-4.8225070572976926e-05
-4.8225070572976926e-05
-4.5469352254521147e-05
-4.2713633936065354e-05
-5.3736507209888505e-05
-6.200366216525588e-05
-6.475938048371164e-05
-5.9247943846800084e-05
-5.9247943846800084e-05
-6.475938048371164e-05
-6.751509880216745e-05
-7.027081712062322e-05
-6.751509880216745e-05
-6.475938048371164e-05
-7.302653543907902e-05
-8.129369039444639e-05
-8.404940871290214e-05
-8.129369039444639e-05
-7.302653543907902e-05
-7.85379720759906e-05
-8.680512703135793e-05
-9.231656366826955e-05
-9.231656366826955e-05
-8.680512703135793e-05
-9.507228198672531e-05
-0.00010333943694209268
-9.78280003051811e-05
-8.680512703135793e-05
-8.404940871290214e-05
-9.231656366826955e-05
-0.00010058371862363688
-9.78280003051811e-05
-8.956084534981374e-05
-8.680512703135793e-05
-9.231656366826955e-05
-0.00010058371862363688
-0.00010058371862363688
-9.78280003051811e-05
-8.956084534981374e-05
-8.404940871290214e-05
-8.404940871290214e-05
-7.85379720759906e-05
-6.751509880216745e-05
-5.9247943846800084e-05
-5.6492225528344285e-05
-6.475938048371164e-05
-6.200366216525588e-05
-5.098078889143272e-05
-2.8935042343786426e-05
-2.066788738841907e-05
-3.4446478980697995e-05
-3.720219729915378e-05
-3.169076066224221e-05
-2.6179324025330647e-05
-2.6179324025330647e-05
-4.5469352254521147e-05
-6.751509880216745e-05
-7.57822537575348e-05
-7.57822537575348e-05
-8.129369039444639e-05
-8.680512703135793e-05
-9.231656366826955e-05
-9.231656366826955e-05
-8.956084534981374e-05
-8.404940871290214e-05
-9.231656366826955e-05
-0.00010333943694209268
-0.00010885087357900426
-0.00010885087357900426
-0.00010058371862363688
-9.78280003051811e-05
-0.00010885087357900426
-0.00010885087357900426
-0.00010885087357900426
-0.00010885087357900426
-0.0001198737468528274
-0.00010333943694209268
-2.6179324025330647e-05
0.00010333943694209132
0.00029072828259708476
0.0005883458609903097
0.000982413580529487
0.0013103440604257258
0.0013489241168841066
0.0010237493553063243
0.00041473560692759526
-0.00022459104295414727
-0.0005552772411688418
-0.0005938572976272227
-0.000500162874799726
-0.0003844227054245829
-0.00027419397268635144
-0.00021356816968032413
-0.00018325526817731047
-0.00017223239490348733
-0.0001612095216296642
-0.0001584538033112084
-0.00015569808499275262
-0.00014743093003738526
-0.0001391637750820179
-0.0001336523384451063
-0.0001336523384451063
-0.0001336523384451063
-0.00012814090180819475
-0.0001226294651712832
-0.00011436231021591582
-0.0001198737468528274
-0.0001226294651712832
-0.0001198737468528274
-0.00011160659189746003
-0.00010609515526054846
-0.00010333943694209268
-0.00010609515526054846
-0.00010333943694209268
-9.507228198672531e-05
-8.404940871290214e-05
-8.680512703135793e-05
-9.507228198672531e-05
-9.231656366826955e-05
-8.404940871290214e-05
-7.85379720759906e-05
-7.85379720759906e-05
-8.129369039444639e-05
-7.85379720759906e-05
-7.027081712062322e-05
-6.200366216525588e-05
-5.6492225528344285e-05
-5.9247943846800084e-05
-5.9247943846800084e-05
-5.3736507209888505e-05
-3.995791561760957e-05
-3.169076066224221e-05
-2.8935042343786426e-05
-2.6179324025330647e-05
-1.240073243305171e-05
9.64501411459459e-06
2.3423605706873515e-05
2.8935042343785094e-05
3.720219729915245e-05
5.649222552834297e-05
8.129369039444505e-05
0.00010885087357900291
0.0001253851834897376
0.00013640805676356078
0.00016120952162966288
0.0001832552681773092
0.00020254529640649968
0.00020805673304341124
0.00020805673304341124
0.0002135681696803228
0.0002218353246356902
0.00022459104295414594
0.0002135681696803228
0.00019152242313267648
0.00017498811322194178
0.00016120952162966288
0.00014467521171892812
0.00011987374685282605
8.956084534981241e-05
6.200366216525454e-05
4.271363393606403e-05
2.066788738841773e-05
-1.377859159228559e-06
-2.066788738841907e-05
-2.8935042343786426e-05
-2.8935042343786426e-05
-3.169076066224221e-05
-4.8225070572976926e-05
-6.475938048371164e-05
-6.475938048371164e-05
-5.9247943846800084e-05
-5.6492225528344285e-05
-6.200366216525588e-05
-6.751509880216745e-05
-7.027081712062322e-05
-6.475938048371164e-05
-5.6492225528344285e-05
-5.9247943846800084e-05
-6.751509880216745e-05
-6.751509880216745e-05
-6.475938048371164e-05
-5.9247943846800084e-05
-5.9247943846800084e-05
-6.475938048371164e-05
-6.751509880216745e-05
-6.751509880216745e-05
-6.200366216525588e-05
-6.200366216525588e-05
-7.027081712062322e-05
-7.85379720759906e-05
-7.85379720759906e-05
-6.751509880216745e-05
-6.475938048371164e-05
-7.57822537575348e-05
-8.404940871290214e-05
-8.404940871290214e-05
-8.129369039444639e-05
-7.85379720759906e-05
-8.404940871290214e-05
-9.507228198672531e-05
-9.78280003051811e-05
-9.231656366826955e-05
-8.680512703135793e-05
-8.956084534981374e-05
-9.78280003051811e-05
-9.78280003051811e-05
-9.507228198672531e-05
-9.231656366826955e-05
-9.231656366826955e-05
-0.00010333943694209268
-0.00010885087357900426
-0.00010609515526054846
-9.78280003051811e-05
-9.78280003051811e-05
-0.00010333943694209268
-0.00010885087357900426
-0.00010885087357900426
-0.00010609515526054846
-0.00010058371862363688
-0.00010609515526054846
-0.00011436231021591582
-0.00011436231021591582
-0.00010609515526054846
-0.00010333943694209268
-0.00011160659189746003
-0.00011436231021591582
-0.00010609515526054846
-9.231656366826955e-05
-7.57822537575348e-05
-7.57822537575348e-05
-8.404940871290214e-05
-7.57822537575348e-05
-6.475938048371164e-05
-5.6492225528344285e-05
-5.098078889143272e-05
-5.3736507209888505e-05
-5.3736507209888505e-05
-4.5469352254521147e-05
-4.2713633936065354e-05
-5.6492225528344285e-05
-7.027081712062322e-05
-8.129369039444639e-05
-8.680512703135793e-05
-9.507228198672531e-05
-0.00010609515526054846
-0.00011436231021591582
-0.00011436231021591582
-0.00010885087357900426
-0.00010609515526054846
-0.0001171180285343716
-0.00012814090180819475
-0.00013089662012665053
-0.0001226294651712832
-0.0001171180285343716
-0.00012538518348973897
-0.00013089662012665053
-0.00013089662012665053
-0.00012538518348973897
-0.0001171180285343716
-0.00012814090180819475
-0.00014743093003738526
-0.0001198737468528274
-3.720219729915378e-05
7.853797207598924e-05
0.00024112535286488067
0.0005056743114366363
0.0008749405661097116
0.0011973596093690386
0.0012414511024643313
0.0009190320592050041
0.00034584264896620056
-0.0002466367895017936
-0.0005635443961242091
-0.0005855901426718552
-0.00047260569161516804
-0.0003513540856031135
-0.0002549039444571609
-0.00021632388799877996
-0.0001997895780880452
-0.00018601098649576628
-0.00018601098649576628
-0.00019152242313267784
-0.00018325526817731047
-0.00017223239490348733
-0.0001612095216296642
-0.0001612095216296642
-0.00016396523994811996
-0.0001612095216296642
-0.00015294236667429682
-0.00014467521171892948
-0.00014191949340047367
-0.000150186648355841
-0.00015294236667429682
-0.00014743093003738526
-0.0001391637750820179
-0.0001364080567635621
-0.0001391637750820179
-0.0001391637750820179
-0.00012538518348973897
-0.0001171180285343716
-0.0001198737468528274
-0.00012814090180819475
-0.00012538518348973897
-0.0001171180285343716
-0.00011160659189746003
-0.00011160659189746003
-0.00011160659189746003
-0.00010885087357900426
-0.00010058371862363688
-9.231656366826955e-05
-9.507228198672531e-05
-0.00010058371862363688
-0.00010058371862363688
-9.231656366826955e-05
-8.129369039444639e-05
-8.129369039444639e-05
-8.129369039444639e-05
-8.129369039444639e-05
-6.751509880216745e-05
-5.6492225528344285e-05
-4.8225070572976926e-05
-4.5469352254521147e-05
-3.720219729915378e-05
-2.066788738841907e-05
4.133577477683014e-06
2.3423605706873515e-05
3.169076066224089e-05
4.271363393606403e-05
6.475938048371032e-05
8.68051270313566e-05
0.00010609515526054714
0.00011711802853437029
0.00011987374685282605
0.00012814090180819342
0.00013916377508201656
0.00015018664835583973
0.00014743093003738393
0.00013640805676356078
0.00013089662012664922
0.00012262946517128183
0.00010885087357900291
9.507228198672396e-05
7.30265354390777e-05
5.098078889143139e-05
3.720219729915245e-05
3.169076066224089e-05
1.7912169069961946e-05
-1.377859159228559e-06
-1.7912169069963278e-05
-2.066788738841907e-05
-2.342360570687485e-05
-2.6179324025330647e-05
-4.5469352254521147e-05
-5.6492225528344285e-05
-5.6492225528344285e-05
-5.6492225528344285e-05
-6.200366216525588e-05
-7.027081712062322e-05
-7.57822537575348e-05
-7.302653543907902e-05
-7.027081712062322e-05
-6.751509880216745e-05
-7.302653543907902e-05
-8.404940871290214e-05
-8.680512703135793e-05
-8.129369039444639e-05
-7.57822537575348e-05
-8.129369039444639e-05
-8.404940871290214e-05
-7.85379720759906e-05
-7.302653543907902e-05
-7.302653543907902e-05
-8.129369039444639e-05
-8.680512703135793e-05
-8.956084534981374e-05
-8.129369039444639e-05
-7.85379720759906e-05
-8.956084534981374e-05
-9.78280003051811e-05
-9.78280003051811e-05
-8.956084534981374e-05
-8.956084534981374e-05
-9.507228198672531e-05
-0.00010333943694209268
-0.00010609515526054846
-9.78280003051811e-05
-9.507228198672531e-05
-0.00010333943694209268
-0.00010609515526054846
-0.00010885087357900426
-0.00010333943694209268
-0.00010058371862363688
-0.00010333943694209268
-0.00011160659189746003
-0.0001171180285343716
-0.00010885087357900426
-0.00010333943694209268
-0.00010609515526054846
-0.00011436231021591582
-0.0001171180285343716
-0.00011160659189746003
-0.00010885087357900426
-0.00010609515526054846
-0.00011160659189746003
-0.0001171180285343716
-0.00011436231021591582
-0.00010609515526054846
-0.00010333943694209268
-0.00010885087357900426
-0.00011436231021591582
-0.00010885087357900426
-9.507228198672531e-05
-7.57822537575348e-05
-8.129369039444639e-05
-8.956084534981374e-05
-8.956084534981374e-05
-7.85379720759906e-05
-6.751509880216745e-05
-5.9247943846800084e-05
-5.098078889143272e-05
-4.5469352254521147e-05
-4.5469352254521147e-05
-4.2713633936065354e-05
-4.2713633936065354e-05
-5.6492225528344285e-05
-7.027081712062322e-05
-7.85379720759906e-05
-8.404940871290214e-05
-8.956084534981374e-05
-9.78280003051811e-05
-0.00010333943694209268
-0.00010609515526054846
-0.00010333943694209268
-9.78280003051811e-05
-0.00010609515526054846
-0.00011436231021591582
-0.00010885087357900426
-0.00010885087357900426
-0.00011436231021591582
-0.0001226294651712832
-0.0001198737468528274
-0.00011160659189746003
-0.00010609515526054846
-0.0001171180285343716
-0.0001364080567635621
-0.0001198737468528274
-4.5469352254521147e-05
6.751509880216611e-05
0.00021632388799877858
0.0004615828183413437
0.0008280933546959632
0.0011863367360952157
0.0013020769054703587
0.001048550820172426
0.0005001628747997245
-0.00012538518348973897
-0.0005222086213473721
-0.00060212445258259
-0.0005056743114366376
-0.00037891126878767127
-0.00026592681773098404
-0.00020530101472495681
-0.00018601098649576628
-0.00017498811322194308
-0.00017498811322194308
-0.00017223239490348733
-0.00016672095826657574
-0.00015569808499275262
-0.00014191949340047367
-0.00014191949340047367
-0.00014467521171892948
-0.0001391637750820179
-0.00013089662012665053
-0.0001198737468528274
-0.0001198737468528274
-0.00012814090180819475
-0.00013089662012665053
-0.0001226294651712832
-0.00011436231021591582
-0.00011160659189746003
-0.0001171180285343716
-0.0001171180285343716
-0.00011160659189746003
-0.00010333943694209268
-9.231656366826955e-05
-9.78280003051811e-05
-0.00010058371862363688
-9.507228198672531e-05
-8.404940871290214e-05
-8.129369039444639e-05
-8.404940871290214e-05
-8.680512703135793e-05
-8.129369039444639e-05
-7.302653543907902e-05
-6.475938048371164e-05
-6.751509880216745e-05
-7.302653543907902e-05
-7.027081712062322e-05
-5.9247943846800084e-05
-5.3736507209888505e-05
-5.3736507209888505e-05
-5.098078889143272e-05
-4.5469352254521147e-05
-1.240073243305171e-05
-4.133577477684346e-06
-1.377859159228559e-06
6.8892957961388014e-06
2.3423605706873515e-05
4.546935225451981e-05
6.475938048371032e-05
7.578225375753347e-05
9.23165636682682e-05
0.00011711802853437029
0.00013640805676356078
0.00015294236667429551
0.0001556980849927513
0.00015845380331120705
0.0001694766765850302
0.00018601098649576498
0.00019152242313267648
0.0001832552681773092
0.00017498811322194178
0.0001694766765850302
0.00016396523994811866
0.00015294236667429551
0.00013089662012664922
0.00010058371862363556
7.853797207598924e-05
6.475938048371032e-05
5.373650720988717e-05
3.720219729915245e-05
1.5156450751506162e-05
1.3778591592272275e-06
-4.133577477684346e-06
-6.889295796140132e-06
-1.240073243305171e-05
-2.8935042343786426e-05
-4.2713633936065354e-05
-4.5469352254521147e-05
-4.2713633936065354e-05
-4.2713633936065354e-05
-5.3736507209888505e-05
-6.200366216525588e-05
-5.9247943846800084e-05
-5.098078889143272e-05
-4.5469352254521147e-05
-5.3736507209888505e-05
-6.200366216525588e-05
-6.200366216525588e-05
-5.6492225528344285e-05
-5.098078889143272e-05
-5.3736507209888505e-05
-5.9247943846800084e-05
-5.9247943846800084e-05
-5.3736507209888505e-05
-4.8225070572976926e-05
-5.3736507209888505e-05
-5.9247943846800084e-05
-6.475938048371164e-05
-6.200366216525588e-05
-5.6492225528344285e-05
-5.3736507209888505e-05
-6.475938048371164e-05
-7.027081712062322e-05
-6.751509880216745e-05
-6.751509880216745e-05
-6.751509880216745e-05
-7.302653543907902e-05
-8.129369039444639e-05
-8.129369039444639e-05
-7.57822537575348e-05
-7.57822537575348e-05
-8.956084534981374e-05
-8.680512703135793e-05
-8.129369039444639e-05
-7.57822537575348e-05
-7.85379720759906e-05
-8.956084534981374e-05
-9.507228198672531e-05
-8.956084534981374e-05
-8.404940871290214e-05
-8.956084534981374e-05
-9.78280003051811e-05
-9.78280003051811e-05
-9.231656366826955e-05
-8.680512703135793e-05
-8.680512703135793e-05
-9.231656366826955e-05
-9.78280003051811e-05
-9.231656366826955e-05
-8.404940871290214e-05
-8.404940871290214e-05
-9.231656366826955e-05
-9.78280003051811e-05
-8.680512703135793e-05
-7.027081712062322e-05
-5.6492225528344285e-05
-6.200366216525588e-05
-6.751509880216745e-05
-6.200366216525588e-05
-5.3736507209888505e-05
-4.8225070572976926e-05
-4.5469352254521147e-05
-3.4446478980697995e-05
-2.8935042343786426e-05
-2.8935042343786426e-05
-1.7912169069963278e-05
-2.066788738841907e-05
-3.4446478980697995e-05
-4.8225070572976926e-05
-5.9247943846800084e-05
-7.027081712062322e-05
-7.57822537575348e-05
-8.680512703135793e-05
-9.231656366826955e-05
-8.956084534981374e-05
-8.680512703135793e-05
-8.680512703135793e-05
-9.507228198672531e-05
-0.00010058371862363688
-0.00010058371862363688
-9.78280003051811e-05
-9.507228198672531e-05
-9.78280003051811e-05
-0.00010609515526054846
-0.00010333943694209268
-0.00010058371862363688
-9.507228198672531e-05
-0.00010333943694209268
-0.0001198737468528274
-0.00010609515526054846
-3.169076066224221e-05
8.129369039444505e-05
0.00023561391622796914
0.000469849973296711
0.0008280933546959632
0.0011946038910505827
0.0013489241168841066
0.0011312223697260999
0.0005883458609903097
-0.0005084300297550932
-0.0006131473258564133
-0.00054976580453193
-0.00045055994506752175
-0.0003348197756923787
-0.00022459104295414727
-0.0001777438315403989
-0.00016672095826657574
-0.00016947667658503157
-0.00017223239490348733
-0.00016396523994811996
-0.000150186648355841
-0.00014191949340047367
-0.00014191949340047367
-0.00014191949340047367
-0.0001364080567635621
-0.0001226294651712832
-0.00011160659189746003
-0.00011160659189746003
-0.0001171180285343716
-0.0001171180285343716
-0.00010609515526054846
-0.00010058371862363688
-0.00010058371862363688
-0.00010885087357900426
-0.00010885087357900426
-9.78280003051811e-05
-8.680512703135793e-05
-8.129369039444639e-05
-8.680512703135793e-05
-8.680512703135793e-05
-7.85379720759906e-05
-6.751509880216745e-05
-6.751509880216745e-05
-7.302653543907902e-05
-7.302653543907902e-05
-6.475938048371164e-05
-5.3736507209888505e-05
-4.8225070572976926e-05
-4.8225070572976926e-05
-4.8225070572976926e-05
-4.5469352254521147e-05
-3.4446478980697995e-05
-2.6179324025330647e-05
-2.342360570687485e-05
-2.066788738841907e-05
-6.889295796140132e-06
6.8892957961388014e-06
2.6179324025329308e-05
3.444647898069667e-05
3.9957915617608246e-05
5.373650720988717e-05
7.578225375753347e-05
0.00010333943694209132
0.0001253851834897376
0.00014191949340047234
0.00016120952162966288
0.00018601098649576498
0.000210812451361867
0.00023010247959105753
0.00023561391622796914
0.00024112535286488067
0.0002549039444571596
0.00027143825436789435
0.0002741939726863501
0.00026592681773098274
0.0002493925078202481
0.00023010247959105753
0.0002135681696803228
0.0001556980849927513
0.00012262946517128183
9.507228198672396e-05
7.578225375753347e-05
5.9247943846798756e-05
3.720219729915245e-05
1.5156450751506162e-05
1.3778591592272275e-06
-6.889295796140132e-06
-6.889295796140132e-06
-1.5156450751507488e-05
-2.8935042343786426e-05
-3.4446478980697995e-05
-3.169076066224221e-05
-2.8935042343786426e-05
-2.6179324025330647e-05
-3.169076066224221e-05
-3.720219729915378e-05
-3.169076066224221e-05
-2.066788738841907e-05
-1.5156450751507488e-05
-2.342360570687485e-05
-3.169076066224221e-05
-2.8935042343786426e-05
-1.7912169069963278e-05
-1.7912169069963278e-05
-2.8935042343786426e-05
-3.4446478980697995e-05
-3.169076066224221e-05
-2.6179324025330647e-05
-2.342360570687485e-05
-3.4446478980697995e-05
-4.8225070572976926e-05
-5.3736507209888505e-05
-4.5469352254521147e-05
-4.2713633936065354e-05
-4.8225070572976926e-05
-5.9247943846800084e-05
-5.9247943846800084e-05
-5.6492225528344285e-05
-5.098078889143272e-05
-5.6492225528344285e-05
-6.751509880216745e-05
-7.302653543907902e-05
-7.302653543907902e-05
-7.027081712062322e-05
-7.027081712062322e-05
-7.57822537575348e-05
-8.129369039444639e-05
-7.85379720759906e-05
-7.302653543907902e-05
-6.751509880216745e-05
-7.85379720759906e-05
-8.680512703135793e-05
-8.680512703135793e-05
-7.85379720759906e-05
-7.302653543907902e-05
-7.57822537575348e-05
-8.956084534981374e-05
-8.956084534981374e-05
-8.129369039444639e-05
-7.85379720759906e-05
-7.85379720759906e-05
-8.680512703135793e-05
-9.231656366826955e-05
-9.231656366826955e-05
-8.680512703135793e-05
-8.680512703135793e-05
-8.404940871290214e-05
-7.027081712062322e-05
-5.9247943846800084e-05
-5.098078889143272e-05
-5.6492225528344285e-05
-6.200366216525588e-05
-5.6492225528344285e-05
-4.5469352254521147e-05
-2.8935042343786426e-05
-1.7912169069963278e-05
-2.342360570687485e-05
-2.8935042343786426e-05
-2.066788738841907e-05
-9.64501411459592e-06
-1.7912169069963278e-05
-3.995791561760957e-05
-5.6492225528344285e-05
-6.200366216525588e-05
-5.9247943846800084e-05
-6.200366216525588e-05
-7.302653543907902e-05
-7.57822537575348e-05
-7.57822537575348e-05
-7.302653543907902e-05
-7.302653543907902e-05
-8.404940871290214e-05
-8.956084534981374e-05
-8.680512703135793e-05
-8.404940871290214e-05
-8.129369039444639e-05
-8.680512703135793e-05
-9.231656366826955e-05
-8.680512703135793e-05
-7.85379720759906e-05
-8.129369039444639e-05
-9.78280003051811e-05
-9.231656366826955e-05
-2.6179324025330647e-05
9.782800030517979e-05
0.00026592681773098274
0.0005111857480735478
0.0008694291294728002
0.0012414511024643313
0.0014123056382085901
0.0012138939192797731
0.0006820402838178067
-9.64501411459592e-06
-0.0004698499732967123
-0.0005883458609903113
-0.0005332314946211955
-0.00043402563515678713
-0.0003293083390554673
-0.00022459104295414727
-0.00017498811322194308
-0.00015569808499275262
-0.00015294236667429682
-0.0001584538033112084
-0.00015294236667429682
-0.00014191949340047367
-0.00013089662012665053
-0.00012538518348973897
-0.00012538518348973897
-0.0001226294651712832
-0.0001171180285343716
-0.00010333943694209268
-9.78280003051811e-05
-0.00010058371862363688
-0.00010885087357900426
-9.231656366826955e-05
-8.404940871290214e-05
-8.680512703135793e-05
-8.680512703135793e-05
-8.404940871290214e-05
-7.85379720759906e-05
-6.751509880216745e-05
-6.475938048371164e-05
-7.027081712062322e-05
-7.027081712062322e-05
-6.200366216525588e-05
-5.3736507209888505e-05
-4.8225070572976926e-05
-5.098078889143272e-05
-4.8225070572976926e-05
-4.2713633936065354e-05
-3.4446478980697995e-05
-2.8935042343786426e-05
-2.8935042343786426e-05
-2.8935042343786426e-05
-2.066788738841907e-05
-6.889295796140132e-06
1.3778591592272275e-06
1.3778591592272275e-06
6.8892957961388014e-06
2.066788738841773e-05
3.720219729915245e-05
5.373650720988717e-05
6.200366216525454e-05
7.30265354390777e-05
9.507228198672396e-05
0.00012262946517128183
0.00015018664835583973
0.0001694766765850302
0.00018876670481422076
0.000210812451361867
0.00023010247959105753
0.0002549039444571596
0.00027143825436789435
0.0002769496910048059
0.0002852168459601733
0.0002989954375524522
0.0003072625925078196
0.000301751155870908
0.0002852168459601733
0.000263171099412527
0.00024663678950179223
0.00022734676127260172
0.0001970338597695881
0.00015845380331120705
0.00011987374685282605
9.782800030517979e-05
8.129369039444505e-05
6.475938048371032e-05
4.546935225451981e-05
2.6179324025329308e-05
1.2400732433050376e-05
9.64501411459459e-06
6.8892957961388014e-06
-4.133577477684346e-06
-1.5156450751507488e-05
-2.066788738841907e-05
-1.7912169069963278e-05
-1.5156450751507488e-05
-1.5156450751507488e-05
-2.066788738841907e-05
-2.066788738841907e-05
-1.5156450751507488e-05
-9.64501411459592e-06
-9.64501411459592e-06
-1.5156450751507488e-05
-1.240073243305171e-05
-6.889295796140132e-06
-4.133577477684346e-06
-1.240073243305171e-05
-1.7912169069963278e-05
-1.7912169069963278e-05
-1.5156450751507488e-05
-9.64501411459592e-06
-1.7912169069963278e-05
-3.169076066224221e-05
-3.720219729915378e-05
-2.8935042343786426e-05
-2.8935042343786426e-05
-3.4446478980697995e-05
-4.5469352254521147e-05
-4.2713633936065354e-05
-3.720219729915378e-05
-3.720219729915378e-05
-4.2713633936065354e-05
-5.6492225528344285e-05
-5.9247943846800084e-05
-5.3736507209888505e-05
-4.8225070572976926e-05
-5.098078889143272e-05
-6.475938048371164e-05
-7.027081712062322e-05
-6.475938048371164e-05
-5.9247943846800084e-05
-5.6492225528344285e-05
-6.475938048371164e-05
-7.302653543907902e-05
-7.57822537575348e-05
-6.751509880216745e-05
-6.475938048371164e-05
-7.027081712062322e-05
-7.85379720759906e-05
-7.57822537575348e-05
-6.751509880216745e-05
-5.6492225528344285e-05
-6.200366216525588e-05
-7.302653543907902e-05
-7.57822537575348e-05
-7.027081712062322e-05
-6.200366216525588e-05
-6.200366216525588e-05
-6.751509880216745e-05
-5.9247943846800084e-05
-4.5469352254521147e-05
-3.720219729915378e-05
-3.4446478980697995e-05
-3.720219729915378e-05
-3.720219729915378e-05
-2.8935042343786426e-05
-9.64501411459592e-06
6.8892957961388014e-06
1.3778591592272275e-06
-1.240073243305171e-05
-6.889295796140132e-06
1.3778591592272275e-06
1.3778591592272275e-06
-1.5156450751507488e-05
-3.995791561760957e-05
-5.098078889143272e-05
-5.098078889143272e-05
-5.3736507209888505e-05
-5.9247943846800084e-05
-6.751509880216745e-05
-6.200366216525588e-05
-6.200366216525588e-05
-6.751509880216745e-05
-7.57822537575348e-05
-7.85379720759906e-05
-7.57822537575348e-05
-7.302653543907902e-05
-7.57822537575348e-05
-8.404940871290214e-05
-8.404940871290214e-05
-7.85379720759906e-05
-7.57822537575348e-05
-8.680512703135793e-05
-8.956084534981374e-05
-3.4446478980697995e-05
7.578225375753347e-05
0.00023561391622796914
0.00047536140993362247
0.0008308490730144192
0.0012276725108720525
0.0014371071030746922
0.0012910540321965354
0.0008005361715114055
0.00010885087357900291
-0.00040371273365377345
-0.0005607886778057534
-0.0005111857480735491
-0.00040922417029068495
-0.00030175115587090934
-0.00020530101472495681
-0.00016396523994811996
-0.000150186648355841
-0.0001391637750820179
-0.0001364080567635621
-0.0001391637750820179
-0.0001391637750820179
-0.00012814090180819475
-0.00011436231021591582
-0.00011160659189746003
-0.00011160659189746003
-0.00010885087357900426
-0.00010058371862363688
-9.231656366826955e-05
-8.404940871290214e-05
-8.956084534981374e-05
-9.231656366826955e-05
-8.680512703135793e-05
-7.85379720759906e-05
-7.57822537575348e-05
-7.85379720759906e-05
-8.129369039444639e-05
-7.57822537575348e-05
-6.475938048371164e-05
-5.9247943846800084e-05
-5.9247943846800084e-05
-6.200366216525588e-05
-5.9247943846800084e-05
-4.5469352254521147e-05
-3.720219729915378e-05
-3.720219729915378e-05
-4.5469352254521147e-05
-4.2713633936065354e-05
-3.4446478980697995e-05
-2.342360570687485e-05
-2.066788738841907e-05
-2.342360570687485e-05
-2.342360570687485e-05
-1.5156450751507488e-05
6.8892957961388014e-06
9.64501411459459e-06
1.2400732433050376e-05
2.3423605706873515e-05
4.546935225451981e-05
6.475938048371032e-05
7.30265354390777e-05
8.404940871290084e-05
0.00010333943694209132
0.00013365233844510492
0.00016396523994811866
0.00018049954985885336
0.0001970338597695881
0.0002190796063172344
0.00024388107118333642
0.000263171099412527
0.00027143825436789435
0.0002741939726863501
0.00027970540932326175
0.0002879725642786291
0.0002989954375524522
0.00029072828259708476
0.00027143825436789435
0.0002493925078202481
0.00022734676127260172
0.000210812451361867
0.00018601098649576498
0.00015018664835583973
0.00012262946517128183
0.00010333943694209132
8.68051270313566e-05
7.02708171206219e-05
4.82250705729756e-05
3.169076066224089e-05
2.066788738841773e-05
1.5156450751506162e-05
9.64501411459459e-06
-1.377859159228559e-06
-1.7912169069963278e-05
-2.342360570687485e-05
-1.7912169069963278e-05
-1.240073243305171e-05
-1.5156450751507488e-05
-2.342360570687485e-05
-2.8935042343786426e-05
-2.342360570687485e-05
-1.240073243305171e-05
-1.240073243305171e-05
-2.066788738841907e-05
-2.6179324025330647e-05
-2.066788738841907e-05
-9.64501411459592e-06
-9.64501411459592e-06
-1.7912169069963278e-05
-2.6179324025330647e-05
-2.066788738841907e-05
-1.7912169069963278e-05
-1.7912169069963278e-05
-2.8935042343786426e-05
-3.4446478980697995e-05
-3.169076066224221e-05
-3.4446478980697995e-05
-3.720219729915378e-05
-3.720219729915378e-05
-4.2713633936065354e-05
-4.2713633936065354e-05
-3.995791561760957e-05
-3.995791561760957e-05
-5.6492225528344285e-05
-6.200366216525588e-05
-5.3736507209888505e-05
-4.8225070572976926e-05
-5.3736507209888505e-05
-6.200366216525588e-05
-6.200366216525588e-05
-5.9247943846800084e-05
-5.098078889143272e-05
-5.3736507209888505e-05
-6.200366216525588e-05
-6.751509880216745e-05
-6.751509880216745e-05
-5.9247943846800084e-05
-5.9247943846800084e-05
-6.751509880216745e-05
-7.302653543907902e-05
-6.475938048371164e-05
-6.200366216525588e-05
-5.6492225528344285e-05
-6.200366216525588e-05
-7.302653543907902e-05
-7.57822537575348e-05
-7.027081712062322e-05
-5.9247943846800084e-05
-5.6492225528344285e-05
-5.6492225528344285e-05
-5.3736507209888505e-05
-4.5469352254521147e-05
-3.4446478980697995e-05
-2.8935042343786426e-05
-3.4446478980697995e-05
-3.169076066224221e-05
-9.64501411459592e-06
6.8892957961388014e-06
-1.377859159228559e-06
-1.240073243305171e-05
-1.240073243305171e-05
-9.64501411459592e-06
-9.64501411459592e-06
-1.5156450751507488e-05
-3.995791561760957e-05
-5.6492225528344285e-05
-6.200366216525588e-05
-5.9247943846800084e-05
-5.6492225528344285e-05
-6.200366216525588e-05
-7.027081712062322e-05
-7.302653543907902e-05
-6.751509880216745e-05
-6.751509880216745e-05
-7.85379720759906e-05
-8.680512703135793e-05
-8.404940871290214e-05
-7.85379720759906e-05
-7.302653543907902e-05
-7.85379720759906e-05
-8.680512703135793e-05
-8.956084534981374e-05
-9.78280003051811e-05
-0.00010058371862363688
-7.57822537575348e-05
-6.889295796140132e-06
0.00010885087357900291
0.0002934840009155406
0.000585590142671854
0.0009769021438925758
0.0013130997787441814
0.0010761080033569843
0.0004918957198443572
-0.00015569808499275262
-0.0005111857480735491
-0.0005718115510795765
-0.00048362856488899143
-0.00036788839551384826
-0.0002466367895017936
-0.0001777438315403989
-0.00016396523994811996
-0.0001584538033112084
-0.000150186648355841
-0.0001391637750820179
-0.00013089662012665053
-0.00013089662012665053
-0.00012538518348973897
-0.0001171180285343716
-0.00010609515526054846
-0.00010609515526054846
-0.00011160659189746003
-0.00010609515526054846
-9.507228198672531e-05
-8.956084534981374e-05
-8.680512703135793e-05
-9.231656366826955e-05
-9.507228198672531e-05
-8.956084534981374e-05
-8.129369039444639e-05
-7.57822537575348e-05
-7.57822537575348e-05
-7.85379720759906e-05
-7.302653543907902e-05
-6.200366216525588e-05
-5.3736507209888505e-05
-5.6492225528344285e-05
-6.200366216525588e-05
-6.200366216525588e-05
-5.3736507209888505e-05
-4.2713633936065354e-05
-4.5469352254521147e-05
-4.8225070572976926e-05
-4.5469352254521147e-05
-3.995791561760957e-05
-2.8935042343786426e-05
-2.066788738841907e-05
-2.6179324025330647e-05
-2.6179324025330647e-05
-1.5156450751507488e-05
-4.133577477684346e-06
4.133577477683014e-06
4.133577477683014e-06
9.64501411459459e-06
2.6179324025329308e-05
4.82250705729756e-05
6.751509880216611e-05
7.30265354390777e-05
8.404940871290084e-05
0.00010609515526054714
0.00013365233844510492
0.00015845380331120705
0.000172232394903486
0.00018876670481422076
0.00020805673304341124
0.00022734676127260172
0.00024388107118333642
0.0002493925078202481
0.00024388107118333642
0.0002493925078202481
0.00025214822613870384
0.00023285819790951333
0.00020805673304341124
0.00018601098649576498
0.0001694766765850302
0.00015294236667429551
0.00012814090180819342
9.507228198672396e-05
7.02708171206219e-05
5.649222552834297e-05
4.82250705729756e-05
3.444647898069667e-05
2.066788738841773e-05
6.8892957961388014e-06
4.133577477683014e-06
1.3778591592272275e-06
-1.377859159228559e-06
-1.7912169069963278e-05
-3.169076066224221e-05
-2.8935042343786426e-05
-2.6179324025330647e-05
-2.342360570687485e-05
-2.8935042343786426e-05
-3.4446478980697995e-05
-3.720219729915378e-05
-3.169076066224221e-05
-2.6179324025330647e-05
-2.8935042343786426e-05
-3.720219729915378e-05
-3.995791561760957e-05
-3.169076066224221e-05
-2.066788738841907e-05
-2.342360570687485e-05
-3.4446478980697995e-05
-3.720219729915378e-05
-3.169076066224221e-05
-2.8935042343786426e-05
-2.6179324025330647e-05
-3.4446478980697995e-05
-4.2713633936065354e-05
-4.5469352254521147e-05
-3.995791561760957e-05
-3.995791561760957e-05
-4.8225070572976926e-05
-5.3736507209888505e-05
