-7.302653543907902e-05
-7.302653543907902e-05
-6.751509880216745e-05
-6.475938048371164e-05
-7.302653543907902e-05
-8.129369039444639e-05
-7.85379720759906e-05
-6.751509880216745e-05
-6.200366216525588e-05
-6.751509880216745e-05
-7.57822537575348e-05
-7.57822537575348e-05
-4.8225070572976926e-05
9.64501411459459e-06
0.00011711802853437029
0.0003182854657816428
0.0006021244525825888
0.0008666734111543443
0.0010595736934462493
0.0010733522850385282
0.0007950247348744939
0.0003127740291447311
-9.231656366826955e-05
-0.0002604153810940725
-0.00022459104295414727
-0.00017498811322194308
-0.000150186648355841
-0.00013089662012665053
-0.00011436231021591582
-0.00010885087357900426
-0.00011436231021591582
-0.0001226294651712832
-0.0001198737468528274
-0.00010609515526054846
-0.00010058371862363688
-0.00010609515526054846
-0.00010609515526054846
-0.00010333943694209268
-9.231656366826955e-05
-8.404940871290214e-05
-8.129369039444639e-05
-8.404940871290214e-05
-7.027081712062322e-05
-6.200366216525588e-05
-6.200366216525588e-05
-6.200366216525588e-05
-5.9247943846800084e-05
-4.8225070572976926e-05
-3.169076066224221e-05
-2.342360570687485e-05
-2.066788738841907e-05
-1.5156450751507488e-05
-1.377859159228559e-06
2.066788738841773e-05
3.9957915617608246e-05
4.82250705729756e-05
5.9247943846798756e-05
8.404940871290084e-05
0.00011160659189745871
0.00013640805676356078
0.00015018664835583973
0.00015845380331120705
0.000172232394903486
0.00019152242313267648
0.00020254529640649968
0.00020254529640649968
0.0001970338597695881
0.0001970338597695881
0.0001970338597695881
0.00019152242313267648
0.00018049954985885336
0.0001556980849927513
0.00013916377508201656
0.00012814090180819342
0.00011160659189745871
9.23165636682682e-05
6.751509880216611e-05
4.546935225451981e-05
2.8935042343785094e-05
2.066788738841773e-05
9.64501411459459e-06
-9.64501411459592e-06
-2.8935042343786426e-05
-3.995791561760957e-05
-4.2713633936065354e-05
-4.5469352254521147e-05
-5.6492225528344285e-05
-6.751509880216745e-05
-7.027081712062322e-05
-6.751509880216745e-05
-6.200366216525588e-05
-7.027081712062322e-05
-8.129369039444639e-05
-8.680512703135793e-05
-7.85379720759906e-05
-6.751509880216745e-05
-6.200366216525588e-05
-6.200366216525588e-05
-6.200366216525588e-05
-5.3736507209888505e-05
-4.2713633936065354e-05
-3.995791561760957e-05
-3.995791561760957e-05
-3.4446478980697995e-05
-1.5156450751507488e-05
4.133577477683014e-06
6.8892957961388014e-06
-4.133577477684346e-06
-4.133577477684346e-06
-4.133577477684346e-06
-9.64501411459592e-06
-2.066788738841907e-05
-4.2713633936065354e-05
-5.9247943846800084e-05
-5.9247943846800084e-05
-6.200366216525588e-05
-7.027081712062322e-05
-8.129369039444639e-05
-8.404940871290214e-05
-7.85379720759906e-05
-7.302653543907902e-05
-7.85379720759906e-05
-8.404940871290214e-05
-8.680512703135793e-05
-8.404940871290214e-05
-7.57822537575348e-05
-7.85379720759906e-05
-8.404940871290214e-05
-6.475938048371164e-05
-1.377859159228559e-06
0.0001253851834897376
0.0003596212405584795
0.0006627502555886161
0.0009438335240711064
0.0011339780880445555
0.0011146880598153653
0.0007702232700083917
0.0002493925078202481
-0.0001584538033112084
-0.00029348400091554195
-0.00023285819790951464
-0.00017498811322194308
-0.00015294236667429682
-0.00015294236667429682
-0.000150186648355841
-0.0001364080567635621
-0.00012814090180819475
-0.00012814090180819475
-0.0001336523384451063
-0.0001336523384451063
-0.0001226294651712832
-0.00011160659189746003
-0.00010885087357900426
-0.00010885087357900426
-0.00010885087357900426
-0.00010333943694209268
-9.507228198672531e-05
-8.956084534981374e-05
-8.956084534981374e-05
-8.956084534981374e-05
-8.404940871290214e-05
-7.302653543907902e-05
-6.200366216525588e-05
-5.9247943846800084e-05
-5.9247943846800084e-05
-5.098078889143272e-05
-3.4446478980697995e-05
-2.066788738841907e-05
-1.240073243305171e-05
-6.889295796140132e-06
4.133577477683014e-06
2.3423605706873515e-05
6.751509880216611e-05
8.129369039444505e-05
9.782800030517979e-05
0.00012262946517128183
0.00014743093003738393
0.00016672095826657444
0.000172232394903486
0.00017498811322194178
0.0001832552681773092
0.00019427814145113231
0.0001970338597695881
0.0001832552681773092
0.000172232394903486
0.00016396523994811866
0.00015845380331120705
0.00014743093003738393
0.00012814090180819342
0.00010058371862363556
7.853797207598924e-05
6.475938048371032e-05
5.373650720988717e-05
3.444647898069667e-05
9.64501411459459e-06
-6.889295796140132e-06
-1.240073243305171e-05
-2.066788738841907e-05
-3.4446478980697995e-05
-5.3736507209888505e-05
-6.200366216525588e-05
-6.751509880216745e-05
-6.751509880216745e-05
-7.027081712062322e-05
-8.404940871290214e-05
-9.231656366826955e-05
-9.231656366826955e-05
-8.680512703135793e-05
-8.680512703135793e-05
-9.507228198672531e-05
-9.78280003051811e-05
-9.231656366826955e-05
-8.404940871290214e-05
-7.85379720759906e-05
-8.129369039444639e-05
-8.129369039444639e-05
-7.57822537575348e-05
-6.475938048371164e-05
-5.3736507209888505e-05
-3.995791561760957e-05
-3.169076066224221e-05
-2.066788738841907e-05
-6.889295796140132e-06
1.3778591592272275e-06
-1.377859159228559e-06
-1.240073243305171e-05
-2.342360570687485e-05
-2.8935042343786426e-05
-3.169076066224221e-05
-4.5469352254521147e-05
-6.751509880216745e-05
-7.85379720759906e-05
-8.129369039444639e-05
-7.57822537575348e-05
-7.57822537575348e-05
-8.404940871290214e-05
-8.956084534981374e-05
-7.85379720759906e-05
-7.302653543907902e-05
-7.57822537575348e-05
-8.404940871290214e-05
-8.680512703135793e-05
-8.129369039444639e-05
-7.57822537575348e-05
-5.6492225528344285e-05
1.3778591592272275e-06
0.00014743093003738393
0.00042024704356450677
0.0007784904249637591
0.0010926423132677188
0.0013020769054703587
0.0012745197222858006
0.0008942305943389022
0.0003072625925078196
-0.00015569808499275262
-0.00030175115587090934
-0.00024388107118333775
-0.00018325526817731047
-0.000150186648355841
-0.0001364080567635621
-0.0001364080567635621
-0.0001364080567635621
-0.0001336523384451063
-0.0001198737468528274
-0.00011160659189746003
-0.00011160659189746003
-0.00011436231021591582
-0.00011160659189746003
-0.00010333943694209268
-9.507228198672531e-05
-8.680512703135793e-05
-9.231656366826955e-05
-8.956084534981374e-05
-8.129369039444639e-05
-7.027081712062322e-05
-7.027081712062322e-05
-7.027081712062322e-05
-6.751509880216745e-05
-5.3736507209888505e-05
-3.720219729915378e-05
-2.8935042343786426e-05
-2.6179324025330647e-05
-2.066788738841907e-05
-4.133577477684346e-06
1.5156450751506162e-05
3.169076066224089e-05
3.720219729915245e-05
4.82250705729756e-05
7.02708171206219e-05
9.782800030517979e-05
0.0001253851834897376
0.00014191949340047234
0.00015294236667429551
0.000172232394903486
0.00019978957808804387
0.00021632388799877858
0.00022734676127260172
0.00022734676127260172
0.00022734676127260172
0.00022734676127260172
0.00023010247959105753
0.00022734676127260172
0.00020805673304341124
0.00018049954985885336
0.0001694766765850302
0.00014743093003738393
0.00011987374685282605
9.507228198672396e-05
8.129369039444505e-05
7.02708171206219e-05
5.098078889143139e-05
2.8935042343785094e-05
6.8892957961388014e-06
-6.889295796140132e-06
-1.5156450751507488e-05
-2.342360570687485e-05
-3.4446478980697995e-05
-4.2713633936065354e-05
-5.3736507209888505e-05
-5.6492225528344285e-05
-5.6492225528344285e-05
-5.9247943846800084e-05
-7.57822537575348e-05
-8.129369039444639e-05
-7.85379720759906e-05
-7.302653543907902e-05
-8.129369039444639e-05
-8.680512703135793e-05
-8.404940871290214e-05
-7.57822537575348e-05
-6.200366216525588e-05
-5.6492225528344285e-05
-5.9247943846800084e-05
-6.200366216525588e-05
-5.6492225528344285e-05
-3.995791561760957e-05
-2.066788738841907e-05
-9.64501411459592e-06
-4.133577477684346e-06
1.3778591592272275e-06
1.2400732433050376e-05
1.7912169069961946e-05
1.2400732433050376e-05
-6.889295796140132e-06
-1.7912169069963278e-05
-2.066788738841907e-05
-3.169076066224221e-05
-4.5469352254521147e-05
-6.200366216525588e-05
-7.302653543907902e-05
-7.302653543907902e-05
-7.027081712062322e-05
-7.027081712062322e-05
-7.57822537575348e-05
-8.129369039444639e-05
-7.57822537575348e-05
-6.751509880216745e-05
-6.751509880216745e-05
-7.57822537575348e-05
-7.85379720759906e-05
-8.129369039444639e-05
-6.475938048371164e-05
-2.6179324025330647e-05
7.02708171206219e-05
0.00027970540932326175
0.0006214144808117793
0.0009961921721217662
0.001293809750514991
0.0011835810177767598
0.0006186587624933234
2.3423605706873515e-05
-0.00029072828259708617
-0.00029348400091554195
-0.0002218353246356915
-0.00018325526817731047
-0.00016672095826657574
-0.000150186648355841
-0.0001391637750820179
-0.00014743093003738526
-0.00014743093003738526
-0.00014191949340047367
-0.00013089662012665053
-0.00012538518348973897
-0.00012538518348973897
-0.00012814090180819475
-0.00012538518348973897
-0.00011436231021591582
-0.00010885087357900426
-0.00011160659189746003
-0.00011436231021591582
-0.00011160659189746003
-0.00010058371862363688
-8.956084534981374e-05
-8.680512703135793e-05
-8.680512703135793e-05
-7.85379720759906e-05
-6.200366216525588e-05
-5.098078889143272e-05
-4.2713633936065354e-05
-3.720219729915378e-05
-2.8935042343786426e-05
-1.240073243305171e-05
6.8892957961388014e-06
2.3423605706873515e-05
3.444647898069667e-05
5.098078889143139e-05
7.30265354390777e-05
0.00010333943694209132
0.00012814090180819342
0.00014191949340047234
0.00014743093003738393
0.0001694766765850302
0.00018876670481422076
0.0001970338597695881
0.0001970338597695881
0.00019152242313267648
0.00018601098649576498
0.00018601098649576498
0.0001832552681773092
0.00016672095826657444
0.00014467521171892812
0.00012262946517128183
0.00010609515526054714
9.23165636682682e-05
7.02708171206219e-05
4.546935225451981e-05
2.6179324025329308e-05
9.64501411459459e-06
-4.133577477684346e-06
-2.066788738841907e-05
-4.5469352254521147e-05
-6.200366216525588e-05
-7.027081712062322e-05
-8.404940871290214e-05
-0.00010058371862363688
-0.00010885087357900426
-0.00011160659189746003
-0.00010885087357900426
-0.00010885087357900426
-0.00011436231021591582
-0.00012538518348973897
-0.00012814090180819475
-0.00012538518348973897
-0.00012538518348973897
-0.00012814090180819475
-0.00013089662012665053
-0.00013089662012665053
-0.0001226294651712832
-0.00011160659189746003
-0.00010885087357900426
-0.00011160659189746003
-0.00011160659189746003
-9.78280003051811e-05
-7.027081712062322e-05
-5.3736507209888505e-05
-5.098078889143272e-05
-5.3736507209888505e-05
-5.098078889143272e-05
-4.2713633936065354e-05
-4.5469352254521147e-05
-5.9247943846800084e-05
-7.027081712062322e-05
-8.129369039444639e-05
-8.956084534981374e-05
-0.00010058371862363688
-0.00011160659189746003
-0.00012538518348973897
-0.00012814090180819475
-0.00013089662012665053
-0.00012814090180819475
-0.00012814090180819475
-0.0001336523384451063
-0.0001336523384451063
-0.00012538518348973897
-0.0001198737468528274
-0.0001198737468528274
-0.00012538518348973897
-0.00013089662012665053
-0.0001198737468528274
-8.129369039444639e-05
4.133577477683014e-06
0.0001832552681773092
0.0004891400015259016
0.000855650537880521
0.0011753138628213923
0.0013571912718394743
0.0012386953841458756
0.0007509332417792012
0.00013089662012664922
-0.00027143825436789566
-0.0003375754940108345
-0.00027419397268635144
-0.00023285819790951464
-0.00021356816968032413
-0.0001997895780880452
-0.00018325526817731047
-0.00018601098649576628
-0.00018876670481422206
-0.00018601098649576628
-0.00016947667658503157
-0.00016947667658503157
-0.00017223239490348733
-0.00016947667658503157
-0.00016396523994811996
-0.000150186648355841
-0.00014467521171892948
-0.000150186648355841
-0.00014743093003738526
-0.00014191949340047367
-0.00012814090180819475
-0.0001198737468528274
-0.0001226294651712832
-0.0001198737468528274
-0.00010885087357900426
-9.507228198672531e-05
-8.680512703135793e-05
-8.129369039444639e-05
-7.85379720759906e-05
-6.751509880216745e-05
-4.2713633936065354e-05
-2.066788738841907e-05
-6.889295796140132e-06
4.133577477683014e-06
2.3423605706873515e-05
5.373650720988717e-05
8.404940871290084e-05
0.00010058371862363556
0.00011436231021591448
0.00012814090180819342
0.00014743093003738393
0.00016396523994811866
0.0001694766765850302
0.00016396523994811866
0.00015845380331120705
0.00015845380331120705
0.00015845380331120705
0.00014467521171892812
0.00012262946517128183
0.00010058371862363556
8.129369039444505e-05
6.751509880216611e-05
4.82250705729756e-05
2.3423605706873515e-05
1.3778591592272275e-06
-1.5156450751507488e-05
-3.169076066224221e-05
-4.8225070572976926e-05
-6.751509880216745e-05
-8.956084534981374e-05
-0.00010333943694209268
-0.00010885087357900426
-0.00011436231021591582
-0.0001226294651712832
-0.0001336523384451063
-0.00014467521171892948
-0.00014191949340047367
-0.0001391637750820179
-0.00014467521171892948
-0.00015569808499275262
-0.00016672095826657574
-0.00016672095826657574
-0.0001612095216296642
-0.0001612095216296642
-0.00016396523994811996
-0.0001612095216296642
-0.00015294236667429682
-0.00014467521171892948
-0.0001391637750820179
-0.00014191949340047367
-0.0001391637750820179
-0.0001226294651712832
-9.78280003051811e-05
-8.680512703135793e-05
-8.680512703135793e-05
-8.680512703135793e-05
-7.57822537575348e-05
-7.302653543907902e-05
-7.85379720759906e-05
-9.507228198672531e-05
-0.00010609515526054846
-0.00011160659189746003
-0.0001198737468528274
-0.00013089662012665053
-0.00014467521171892948
-0.00015569808499275262
-0.00015569808499275262
-0.00014467521171892948
-0.00014191949340047367
-0.00015294236667429682
-0.0001612095216296642
-0.0001584538033112084
-0.00014743093003738526
-0.00014467521171892948
-0.00015294236667429682
-0.0001612095216296642
-0.0001612095216296642
-0.00014191949340047367
-9.78280003051811e-05
9.64501411459459e-06
0.00022459104295414594
0.0005745672693980309
0.0009438335240711064
0.0012386953841458756
0.001335145525291828
0.0010843751583123511
0.000508430029755092
-7.302653543907902e-05
-0.0003651326771953924
-0.0003568655222400251
-0.00029348400091554195
-0.0002631710994125282
-0.00024388107118333775
-0.00022734676127260308
-0.00022459104295414727
-0.00022459104295414727
-0.00022734676127260308
-0.0002218353246356915
-0.0002108124513618684
-0.00020254529640650095
-0.00020254529640650095
-0.00020530101472495681
-0.00020254529640650095
-0.00018876670481422206
-0.00018325526817731047
-0.00018325526817731047
-0.00018601098649576628
-0.00018325526817731047
-0.00017223239490348733
-0.00016396523994811996
-0.0001612095216296642
-0.00015569808499275262
-0.00014191949340047367
-0.00012538518348973897
-0.0001171180285343716
-0.00011436231021591582
-0.00010885087357900426
-9.231656366826955e-05
-7.027081712062322e-05
-4.8225070572976926e-05
-3.4446478980697995e-05
-2.342360570687485e-05
-4.133577477684346e-06
2.6179324025329308e-05
5.649222552834297e-05
7.30265354390777e-05
8.129369039444505e-05
9.782800030517979e-05
0.00011711802853437029
0.00013089662012664922
0.00013089662012664922
0.0001253851834897376
0.00012262946517128183
0.00012262946517128183
0.00011436231021591448
0.00010058371862363556
7.578225375753347e-05
5.373650720988717e-05
3.444647898069667e-05
2.066788738841773e-05
1.3778591592272275e-06
-2.342360570687485e-05
-4.8225070572976926e-05
-7.027081712062322e-05
-8.680512703135793e-05
-9.507228198672531e-05
-0.00011160659189746003
-0.00013089662012665053
-0.00014467521171892948
-0.000150186648355841
-0.0001612095216296642
-0.00017498811322194308
-0.00019152242313267784
-0.00019427814145113364
-0.00019152242313267784
-0.00019152242313267784
-0.0001997895780880452
-0.00021356816968032413
-0.0002218353246356915
-0.0002190796063172357
-0.0002190796063172357
-0.0002190796063172357
-0.0002190796063172357
-0.00021356816968032413
-0.0002080567330434125
-0.00019703385976958942
-0.00019152242313267784
-0.00018876670481422206
-0.00018876670481422206
-0.00018049954985885472
-0.0001584538033112084
-0.0001391637750820179
-0.00012538518348973897
-0.0001198737468528274
-0.00011436231021591582
-0.00010885087357900426
-0.00011436231021591582
-0.00012814090180819475
-0.0001336523384451063
-0.0001391637750820179
-0.00015294236667429682
-0.00016672095826657574
-0.00018325526817731047
-0.00018876670481422206
-0.00018601098649576628
-0.00018601098649576628
-0.00019152242313267784
-0.0001997895780880452
-0.00020254529640650095
-0.00019427814145113364
-0.00018601098649576628
-0.00018876670481422206
-0.00019427814145113364
-0.0001997895780880452
-0.0001997895780880452
-0.00018325526817731047
-0.00014467521171892948
-5.098078889143272e-05
0.00015018664835583973
0.00047536140993362247
0.0008115590447852286
0.0010871308766308072
0.0012028710460059502
0.0010127264820325008
0.0005029185931181804
-5.3736507209888505e-05
-0.0003651326771953924
-0.0003871784237430386
-0.00032379690241855563
-0.0002852168459601746
-0.0002604153810940725
-0.00024112535286488197
-0.00023836963454642628
-0.00024388107118333775
-0.00024388107118333775
-0.00023285819790951464
-0.0002190796063172357
-0.00021632388799877996
-0.0002218353246356915
-0.00021632388799877996
-0.0002080567330434125
-0.0001997895780880452
-0.00019703385976958942
-0.00019703385976958942
-0.0001997895780880452
-0.00020254529640650095
-0.00019152242313267784
-0.00018325526817731047
-0.00018325526817731047
-0.00018876670481422206
-0.00018049954985885472
-0.00016672095826657574
-0.000150186648355841
-0.00014743093003738526
-0.00014743093003738526
-0.0001364080567635621
-0.0001171180285343716
-9.78280003051811e-05
-8.680512703135793e-05
-7.85379720759906e-05
-6.200366216525588e-05
-6.889295796140132e-06
1.7912169069961946e-05
3.444647898069667e-05
4.546935225451981e-05
6.200366216525454e-05
8.68051270313566e-05
9.782800030517979e-05
9.507228198672396e-05
9.23165636682682e-05
9.23165636682682e-05
9.782800030517979e-05
9.23165636682682e-05
8.129369039444505e-05
6.200366216525454e-05
4.546935225451981e-05
3.169076066224089e-05
1.7912169069961946e-05
-4.133577477684346e-06
-3.169076066224221e-05
-5.098078889143272e-05
-6.200366216525588e-05
-7.302653543907902e-05
-9.231656366826955e-05
-0.00011436231021591582
-0.00013089662012665053
-0.00014191949340047367
-0.00014743093003738526
-0.00015569808499275262
-0.00016947667658503157
-0.00018325526817731047
-0.00018601098649576628
-0.00018049954985885472
-0.00017498811322194308
-0.00018325526817731047
-0.00019427814145113364
-0.00019427814145113364
-0.00019152242313267784
-0.00018876670481422206
-0.00019427814145113364
-0.00019703385976958942
-0.00018876670481422206
-0.00017498811322194308
-0.00016947667658503157
-0.00016396523994811996
-0.00016396523994811996
-0.00016672095826657574
-0.00015569808499275262
-0.0001364080567635621
-0.00012538518348973897
-0.0001171180285343716
-0.00011436231021591582
-0.00010885087357900426
-0.00010333943694209268
-0.00010333943694209268
-0.0001171180285343716
-0.00013089662012665053
-0.0001364080567635621
-0.00014191949340047367
-0.00015569808499275262
-0.00016947667658503157
-0.00018325526817731047
-0.00018876670481422206
-0.00018601098649576628
-0.00018049954985885472
-0.00018601098649576628
-0.00019703385976958942
-0.00019152242313267784
-0.00018601098649576628
-0.00018601098649576628
-0.00019152242313267784
-0.00019427814145113364
-0.00019152242313267784
-0.00016947667658503157
-0.00012538518348973897
-3.169076066224221e-05
0.00016120952162966288
0.0004615828183413437
0.0007509332417792012
0.0009631235523002968
0.0010182379186694126
0.0007784904249637591
0.00029623971923399637
-0.00016672095826657574
-0.0003982012970168618
-0.0003844227054245829
-0.00032379690241855563
-0.00028797256427863044
-0.0002631710994125282
-0.0002521482261387052
-0.0002521482261387052
-0.00025765966277561676
-0.0002549039444571609
-0.00024388107118333775
-0.00023561391622797047
-0.00023561391622797047
-0.00024112535286488197
-0.00023561391622797047
-0.00022734676127260308
-0.0002190796063172357
-0.00021632388799877996
-0.0002218353246356915
-0.00022459104295414727
-0.00021632388799877996
-0.00020254529640650095
-0.0001997895780880452
-0.0001997895780880452
-0.0001997895780880452
-0.00019152242313267784
-0.00017223239490348733
-0.0001612095216296642
-0.0001584538033112084
-0.00015569808499275262
-0.00014467521171892948
-0.00012538518348973897
-0.00010333943694209268
-9.507228198672531e-05
-8.680512703135793e-05
-7.027081712062322e-05
-4.2713633936065354e-05
-1.5156450751507488e-05
1.3778591592272275e-06
1.2400732433050376e-05
2.8935042343785094e-05
4.82250705729756e-05
6.751509880216611e-05
7.578225375753347e-05
7.30265354390777e-05
7.02708171206219e-05
7.02708171206219e-05
7.30265354390777e-05
6.200366216525454e-05
2.066788738841773e-05
6.8892957961388014e-06
-4.133577477684346e-06
-2.066788738841907e-05
-4.8225070572976926e-05
-7.302653543907902e-05
-8.956084534981374e-05
-0.00010058371862363688
-0.00010885087357900426
-0.00012814090180819475
-0.000150186648355841
-0.0001612095216296642
-0.00016947667658503157
-0.00017223239490348733
-0.00018049954985885472
-0.00019703385976958942
-0.00020530101472495681
-0.0002080567330434125
-0.00020530101472495681
-0.0002108124513618684
-0.0002190796063172357
-0.00022459104295414727
-0.00022459104295414727
-0.0002218353246356915
-0.0002218353246356915
-0.00022734676127260308
-0.00022734676127260308
-0.0002190796063172357
-0.00020530101472495681
-0.00020254529640650095
-0.0001997895780880452
-0.00020530101472495681
-0.00020254529640650095
-0.00018876670481422206
-0.00016672095826657574
-0.00015569808499275262
-0.00015569808499275262
-0.00015294236667429682
-0.00014743093003738526
-0.00014743093003738526
-0.0001584538033112084
-0.00017498811322194308
-0.00018325526817731047
-0.00018325526817731047
-0.00018876670481422206
-0.00020530101472495681
-0.00021632388799877996
-0.00022734676127260308
-0.00022734676127260308
-0.0002218353246356915
-0.00022459104295414727
-0.00023561391622797047
-0.00024112535286488197
-0.00023836963454642628
-0.00022734676127260308
-0.0002218353246356915
-0.00022459104295414727
-0.00023285819790951464
-0.00023285819790951464
-0.0002190796063172357
-0.00018325526817731047
-0.0001171180285343716
9.64501411459459e-06
0.00024663678950179223
0.0005359872129396498
0.0009328106507972832
0.000858406256198977
0.0004946514381628131
2.066788738841773e-05
-0.00032379690241855563
-0.00041749132524605234
-0.0003651326771953924
-0.0003210411841000998
-0.00029348400091554195
-0.00027694969100480727
-0.00027419397268635144
-0.00027694969100480727
-0.00027970540932326305
-0.00027143825436789566
-0.0002631710994125282
-0.00025765966277561676
-0.0002549039444571609
-0.00025765966277561676
-0.0002549039444571609
-0.00024388107118333775
-0.00023836963454642628
-0.00023836963454642628
-0.00024388107118333775
-0.00024388107118333775
-0.00023285819790951464
-0.0002190796063172357
-0.00021632388799877996
-0.00021632388799877996
-0.0002108124513618684
-0.0001997895780880452
-0.00018601098649576628
-0.00018049954985885472
-0.0001777438315403989
-0.00017223239490348733
-0.00015569808499275262
-0.0001364080567635621
-0.0001226294651712832
-0.00011160659189746003
-9.78280003051811e-05
-7.302653543907902e-05
-4.5469352254521147e-05
-2.342360570687485e-05
-9.64501411459592e-06
6.8892957961388014e-06
2.3423605706873515e-05
4.271363393606403e-05
5.649222552834297e-05
6.751509880216611e-05
6.751509880216611e-05
6.475938048371032e-05
6.751509880216611e-05
6.475938048371032e-05
5.098078889143139e-05
3.444647898069667e-05
1.5156450751506162e-05
6.8892957961388014e-06
-1.377859159228559e-06
-1.7912169069963278e-05
-4.5469352254521147e-05
-7.027081712062322e-05
-8.680512703135793e-05
-9.507228198672531e-05
-0.00010885087357900426
-0.00012814090180819475
-0.00014743093003738526
-0.0001612095216296642
-0.00016396523994811996
-0.00017498811322194308
-0.00018876670481422206
-0.00019152242313267784
-0.00018876670481422206
-0.00018876670481422206
-0.00019152242313267784
-0.00020254529640650095
-0.00020530101472495681
-0.00020254529640650095
-0.0001997895780880452
-0.0001997895780880452
-0.00019703385976958942
-0.00019152242313267784
-0.00018325526817731047
-0.00017498811322194308
-0.00017223239490348733
-0.00016947667658503157
-0.00017223239490348733
-0.0001584538033112084
-0.0001364080567635621
-0.0001198737468528274
-0.00011436231021591582
-0.0001171180285343716
-0.00011436231021591582
-0.00010609515526054846
-0.00010609515526054846
-0.0001198737468528274
-0.0001336523384451063
-0.0001391637750820179
-0.00014743093003738526
-0.00015569808499275262
-0.00016672095826657574
-0.00018049954985885472
-0.00018601098649576628
-0.00018049954985885472
-0.0001777438315403989
-0.0001777438315403989
-0.00018325526817731047
-0.00018601098649576628
-0.00018049954985885472
-0.00017223239490348733
-0.00016947667658503157
-0.0001777438315403989
-0.00018049954985885472
-0.00017498811322194308
-0.0001391637750820179
-7.027081712062322e-05
7.02708171206219e-05
0.00032655262073701005
0.0006572388189517045
0.0009465892423895617
0.001125710933089188
0.0010457951018539703
0.000637948790722514
9.782800030517979e-05
-0.00028797256427863044
-0.00037891126878767127
-0.0003127740291447324
-0.0002686825360494398
-0.0002466367895017936
-0.00023285819790951464
-0.0002190796063172357
-0.0002190796063172357
-0.0002190796063172357
-0.0002108124513618684
-0.0001997895780880452
-0.00019427814145113364
-0.00019703385976958942
-0.00019427814145113364
-0.00018601098649576628
-0.00018049954985885472
-0.00017498811322194308
-0.00017223239490348733
-0.00017223239490348733
-0.00016396523994811996
-0.000150186648355841
-0.00014191949340047367
-0.00014191949340047367
-0.0001391637750820179
-0.00013089662012665053
-0.00011160659189746003
-9.507228198672531e-05
-8.680512703135793e-05
-8.680512703135793e-05
-7.85379720759906e-05
-5.6492225528344285e-05
-3.169076066224221e-05
-1.7912169069963278e-05
-9.64501411459592e-06
9.64501411459459e-06
3.9957915617608246e-05
6.475938048371032e-05
8.68051270313566e-05
9.782800030517979e-05
0.00010609515526054714
0.0001253851834897376
0.00014467521171892812
0.00015294236667429551
0.00014743093003738393
0.00014191949340047234
0.00013916377508201656
0.00013916377508201656
0.00013365233844510492
0.00011436231021591448
8.956084534981241e-05
7.30265354390777e-05
6.200366216525454e-05
4.82250705729756e-05
2.6179324025329308e-05
1.3778591592272275e-06
-1.7912169069963278e-05
-3.169076066224221e-05
-3.995791561760957e-05
-5.6492225528344285e-05
-7.57822537575348e-05
-8.956084534981374e-05
-9.507228198672531e-05
-9.507228198672531e-05
-0.00010058371862363688
-0.00011436231021591582
-0.00012538518348973897
-0.00012538518348973897
-0.0001198737468528274
-0.0001198737468528274
-0.00012814090180819475
-0.00014191949340047367
-0.00014467521171892948
-0.0001364080567635621
-0.00013089662012665053
-0.0001364080567635621
-0.0001336523384451063
-0.00012538518348973897
-0.00011436231021591582
-0.00011160659189746003
-0.00011160659189746003
-0.00010609515526054846
-8.129369039444639e-05
-5.9247943846800084e-05
-4.8225070572976926e-05
-4.8225070572976926e-05
-5.3736507209888505e-05
-4.8225070572976926e-05
-3.995791561760957e-05
-4.5469352254521147e-05
-6.200366216525588e-05
-7.85379720759906e-05
-9.231656366826955e-05
-9.78280003051811e-05
-9.78280003051811e-05
-0.00011436231021591582
-0.00012538518348973897
-0.00012814090180819475
-0.0001198737468528274
-0.00011436231021591582
-0.0001198737468528274
-0.0001226294651712832
-0.0001198737468528274
-0.00011160659189746003
-0.00010885087357900426
-0.00010885087357900426
-0.0001171180285343716
-0.00011436231021591582
-8.404940871290214e-05
-4.133577477684346e-06
0.00016396523994811866
0.0004450485084306089
0.0007950247348744939
0.0011174437781338207
0.001335145525291828
0.001271764003967345
0.0008363605096513305
0.00022459104295414594
-0.00021632388799877996
-0.0003210411841000998
-0.00024939250782024937
-0.0001997895780880452
-0.00018325526817731047
-0.00016947667658503157
-0.00015294236667429682
-0.00014467521171892948
-0.00014191949340047367
-0.00014467521171892948
-0.00014191949340047367
-0.00013089662012665053
-0.0001198737468528274
-0.0001198737468528274
-0.0001198737468528274
-0.0001171180285343716
-0.00010885087357900426
-9.78280003051811e-05
-9.231656366826955e-05
-9.507228198672531e-05
-9.231656366826955e-05
-8.680512703135793e-05
-6.200366216525588e-05
-5.9247943846800084e-05
-5.3736507209888505e-05
-3.720219729915378e-05
-1.7912169069963278e-05
-4.133577477684346e-06
1.3778591592272275e-06
9.64501411459459e-06
2.6179324025329308e-05
5.098078889143139e-05
7.02708171206219e-05
8.68051270313566e-05
0.00010333943694209132
0.0001253851834897376
0.0001556980849927513
0.00018601098649576498
0.00020254529640649968
0.000210812451361867
0.00022459104295414594
0.00024388107118333642
0.0002576596627756154
0.00026041538109407124
0.0002549039444571596
0.00024663678950179223
0.00024112535286488067
0.0002383696345464249
0.00022734676127260172
0.00020530101472495543
0.0001832552681773092
0.00016672095826657444
0.0001556980849927513
0.00013916377508201656
0.00011711802853437029
9.23165636682682e-05
7.30265354390777e-05
6.200366216525454e-05
5.098078889143139e-05
3.169076066224089e-05
9.64501411459459e-06
-4.133577477684346e-06
-4.133577477684346e-06
-4.133577477684346e-06
-9.64501411459592e-06
-2.066788738841907e-05
-2.8935042343786426e-05
-2.8935042343786426e-05
-2.6179324025330647e-05
-2.8935042343786426e-05
-3.720219729915378e-05
-4.2713633936065354e-05
-3.995791561760957e-05
-3.169076066224221e-05
-2.342360570687485e-05
-2.342360570687485e-05
-2.6179324025330647e-05
-1.7912169069963278e-05
-4.133577477684346e-06
-1.377859159228559e-06
-1.377859159228559e-06
1.3778591592272275e-06
2.3423605706873515e-05
4.546935225451981e-05
5.9247943846798756e-05
6.200366216525454e-05
5.649222552834297e-05
6.200366216525454e-05
5.649222552834297e-05
4.82250705729756e-05
2.8935042343785094e-05
6.8892957961388014e-06
1.3778591592272275e-06
1.3778591592272275e-06
-1.377859159228559e-06
-1.240073243305171e-05
-2.066788738841907e-05
-1.7912169069963278e-05
-9.64501411459592e-06
-6.889295796140132e-06
-9.64501411459592e-06
-1.240073243305171e-05
-1.240073243305171e-05
-6.889295796140132e-06
-4.133577477684346e-06
-1.240073243305171e-05
-6.889295796140132e-06
2.8935042343785094e-05
0.00014191949340047234
0.0003623769588769353
0.0007040860303654528
0.0010623294117647053
0.0013489241168841066
0.0014674200045777057
0.001246962539101243
0.000679284565499351
8.129369039444505e-05
-0.00022734676127260308
-0.0002190796063172357
-0.0001364080567635621
-9.507228198672531e-05
-8.956084534981374e-05
-8.680512703135793e-05
-7.302653543907902e-05
-5.9247943846800084e-05
-5.6492225528344285e-05
-5.9247943846800084e-05
-5.9247943846800084e-05
-5.098078889143272e-05
-3.995791561760957e-05
-3.4446478980697995e-05
-3.4446478980697995e-05
-3.720219729915378e-05
-3.4446478980697995e-05
-2.342360570687485e-05
-1.5156450751507488e-05
-1.7912169069963278e-05
-1.7912169069963278e-05
-1.5156450751507488e-05
-1.377859159228559e-06
1.5156450751506162e-05
1.7912169069961946e-05
1.5156450751506162e-05
2.3423605706873515e-05
3.9957915617608246e-05
5.649222552834297e-05
6.475938048371032e-05
7.02708171206219e-05
8.404940871290084e-05
0.00010333943694209132
0.00012814090180819342
0.00014743093003738393
0.00016396523994811866
0.00020530101472495543
0.00023285819790951333
0.0002576596627756154
0.0002686825360494386
0.0002741939726863501
0.00027970540932326175
0.0002934840009155406
0.00029623971923399637
0.0002852168459601733
0.0002686825360494386
0.00026041538109407124
0.0002576596627756154
0.0002493925078202481
0.00022734676127260172
0.0001970338597695881
0.00017498811322194178
0.00015845380331120705
0.00014743093003738393
0.0001253851834897376
0.00010058371862363556
7.853797207598924e-05
6.751509880216611e-05
5.9247943846798756e-05
4.546935225451981e-05
2.3423605706873515e-05
6.8892957961388014e-06
4.133577477683014e-06
4.133577477683014e-06
-1.377859159228559e-06
-1.240073243305171e-05
-2.066788738841907e-05
-2.066788738841907e-05
-2.066788738841907e-05
-1.7912169069963278e-05
-2.342360570687485e-05
-3.720219729915378e-05
-3.995791561760957e-05
-3.4446478980697995e-05
-2.6179324025330647e-05
-2.6179324025330647e-05
-3.169076066224221e-05
-2.8935042343786426e-05
-2.066788738841907e-05
-6.889295796140132e-06
-4.133577477684346e-06
-4.133577477684346e-06
6.8892957961388014e-06
2.6179324025329308e-05
4.271363393606403e-05
5.098078889143139e-05
4.546935225451981e-05
4.271363393606403e-05
4.271363393606403e-05
4.271363393606403e-05
3.9957915617608246e-05
2.6179324025329308e-05
1.3778591592272275e-06
-1.240073243305171e-05
-1.5156450751507488e-05
-1.5156450751507488e-05
-2.342360570687485e-05
-3.4446478980697995e-05
-3.720219729915378e-05
-2.8935042343786426e-05
-2.066788738841907e-05
-3.169076066224221e-05
-3.4446478980697995e-05
-2.6179324025330647e-05
-2.066788738841907e-05
-2.6179324025330647e-05
-3.169076066224221e-05
-1.5156450751507488e-05
5.9247943846798756e-05
0.00022734676127260172
0.0005111857480735478
0.0008666734111543443
0.0011863367360952157
0.0014067942015716782
0.0013847484550240322
0.0009934364538033101
0.00037064411383230263
-0.00011436231021591582
-0.0002549039444571609
-0.00018601098649576628
-0.00013089662012665053
-0.00011436231021591582
-0.00010885087357900426
-0.00010333943694209268
-9.507228198672531e-05
-8.404940871290214e-05
-8.129369039444639e-05
-8.680512703135793e-05
-8.404940871290214e-05
-7.57822537575348e-05
-6.751509880216745e-05
-6.200366216525588e-05
-6.475938048371164e-05
-6.751509880216745e-05
-5.9247943846800084e-05
-5.098078889143272e-05
-4.5469352254521147e-05
-4.8225070572976926e-05
-4.8225070572976926e-05
-4.2713633936065354e-05
-3.169076066224221e-05
-1.7912169069963278e-05
-1.5156450751507488e-05
-1.7912169069963278e-05
-6.889295796140132e-06
1.2400732433050376e-05
2.8935042343785094e-05
3.720219729915245e-05
4.271363393606403e-05
5.649222552834297e-05
7.853797207598924e-05
0.00010609515526054714
0.00012814090180819342
0.00014191949340047234
0.00016396523994811866
0.00018876670481422076
0.0002135681696803228
0.00023010247959105753
0.0002383696345464249
0.00024388107118333642
0.0002549039444571596
0.00026592681773098274
0.0002686825360494386
0.00026041538109407124
0.00024663678950179223
0.0002383696345464249
0.0002190796063172344
0.00019427814145113231
0.00016396523994811866
0.00014191949340047234
0.00012814090180819342
0.00011436231021591448
9.23165636682682e-05
6.475938048371032e-05
4.271363393606403e-05
2.8935042343785094e-05
2.066788738841773e-05
6.8892957961388014e-06
-1.5156450751507488e-05
-2.8935042343786426e-05
-3.169076066224221e-05
-3.169076066224221e-05
-3.995791561760957e-05
-5.098078889143272e-05
-5.6492225528344285e-05
-5.6492225528344285e-05
-5.6492225528344285e-05
-5.9247943846800084e-05
-6.751509880216745e-05
-8.129369039444639e-05
-8.129369039444639e-05
-7.302653543907902e-05
-6.751509880216745e-05
-6.751509880216745e-05
-7.027081712062322e-05
-6.475938048371164e-05
-5.3736507209888505e-05
-4.5469352254521147e-05
-4.8225070572976926e-05
-5.098078889143272e-05
-3.720219729915378e-05
-1.240073243305171e-05
6.8892957961388014e-06
1.2400732433050376e-05
4.133577477683014e-06
1.3778591592272275e-06
1.3778591592272275e-06
-4.133577477684346e-06
-9.64501411459592e-06
-2.342360570687485e-05
-4.2713633936065354e-05
-5.6492225528344285e-05
-5.3736507209888505e-05
-5.9247943846800084e-05
-7.027081712062322e-05
-7.85379720759906e-05
-7.85379720759906e-05
-7.302653543907902e-05
-6.751509880216745e-05
-7.027081712062322e-05
-7.85379720759906e-05
-7.57822537575348e-05
-6.751509880216745e-05
-5.9247943846800084e-05
-6.200366216525588e-05
-6.475938048371164e-05
-3.4446478980697995e-05
6.751509880216611e-05
0.00027970540932326175
0.0006159030441748677
0.0009796578622110316
0.0012772754406042562
0.0012607411306935217
0.0007316432135500107
0.00011160659189745871
-0.0002604153810940725
-0.0002824611276417188
-0.0001997895780880452
-0.00015569808499275262
-0.00014467521171892948
-0.0001391637750820179
-0.00013089662012665053
-0.0001198737468528274
-0.00011436231021591582
-0.0001171180285343716
-0.0001198737468528274
-0.0001171180285343716
-0.00010333943694209268
-9.231656366826955e-05
-8.956084534981374e-05
-8.956084534981374e-05
-9.231656366826955e-05
-8.129369039444639e-05
-7.027081712062322e-05
-6.751509880216745e-05
-7.027081712062322e-05
-7.027081712062322e-05
-5.9247943846800084e-05
-4.2713633936065354e-05
-3.720219729915378e-05
-3.4446478980697995e-05
-2.8935042343786426e-05
-1.5156450751507488e-05
4.133577477683014e-06
1.7912169069961946e-05
2.3423605706873515e-05
2.8935042343785094e-05
4.546935225451981e-05
7.02708171206219e-05
9.507228198672396e-05
0.00011160659189745871
0.0001253851834897376
0.00014467521171892812
0.000172232394903486
0.00019427814145113231
0.00020530101472495543
0.000210812451361867
0.0002190796063172344
0.00023010247959105753
0.00023561391622796914
0.00023561391622796914
0.00022459104295414594
0.0002135681696803228
0.00020530101472495543
0.00019427814145113231
0.00017774383154039756
0.00015018664835583973
0.00013089662012664922
0.00011436231021591448
0.00010333943694209132
8.404940871290084e-05
5.9247943846798756e-05
3.720219729915245e-05
2.066788738841773e-05
1.5156450751506162e-05
4.133577477683014e-06
-1.5156450751507488e-05
-3.995791561760957e-05
-4.2713633936065354e-05
-3.995791561760957e-05
-4.8225070572976926e-05
-6.200366216525588e-05
-6.751509880216745e-05
-6.475938048371164e-05
-6.200366216525588e-05
-6.751509880216745e-05
-7.57822537575348e-05
-7.85379720759906e-05
-7.57822537575348e-05
-6.751509880216745e-05
-6.200366216525588e-05
-6.475938048371164e-05
-6.751509880216745e-05
-5.9247943846800084e-05
-4.5469352254521147e-05
-4.2713633936065354e-05
-4.2713633936065354e-05
-3.720219729915378e-05
-2.066788738841907e-05
1.3778591592272275e-06
1.2400732433050376e-05
9.64501411459459e-06
6.8892957961388014e-06
6.8892957961388014e-06
1.2400732433050376e-05
6.8892957961388014e-06
-4.133577477684346e-06
-1.7912169069963278e-05
-3.4446478980697995e-05
-4.2713633936065354e-05
-4.5469352254521147e-05
-4.8225070572976926e-05
-5.9247943846800084e-05
-6.475938048371164e-05
-6.475938048371164e-05
-5.6492225528344285e-05
-5.9247943846800084e-05
-6.475938048371164e-05
-7.027081712062322e-05
-6.475938048371164e-05
-5.9247943846800084e-05
-5.9247943846800084e-05
-6.475938048371164e-05
-5.9247943846800084e-05
-2.342360570687485e-05
7.578225375753347e-05
0.00026041538109407124
0.0005414986495765614
0.0008336047913328749
0.0010705965667200726
0.0011890924544136717
0.0010402836652170589
0.0005911015793087656
7.30265354390777e-05
-0.00023285819790951464
-0.0002549039444571609
-0.0001777438315403989
-0.00014467521171892948
-0.00013089662012665053
-0.00012538518348973897
-0.00011436231021591582
-0.00010333943694209268
-0.00010609515526054846
-0.00010885087357900426
-0.00010058371862363688
-8.956084534981374e-05
-8.404940871290214e-05
-8.680512703135793e-05
-8.956084534981374e-05
-8.404940871290214e-05
-7.027081712062322e-05
-6.475938048371164e-05
-6.475938048371164e-05
-7.027081712062322e-05
-6.475938048371164e-05
-5.3736507209888505e-05
-3.995791561760957e-05
-3.169076066224221e-05
-3.4446478980697995e-05
-3.169076066224221e-05
-1.5156450751507488e-05
-1.377859159228559e-06
6.8892957961388014e-06
9.64501411459459e-06
2.066788738841773e-05
4.271363393606403e-05
6.751509880216611e-05
8.68051270313566e-05
9.507228198672396e-05
0.00011160659189745871
0.00013640805676356078
0.00016120952162966288
0.0001832552681773092
0.00019427814145113231
0.00020254529640649968
0.000210812451361867
0.00022459104295414594
0.00023010247959105753
0.00022734676127260172
0.00021632388799877858
0.00020530101472495543
0.0001970338597695881
0.00019152242313267648
0.00017498811322194178
0.00014743093003738393
0.0001253851834897376
0.00011160659189745871
9.782800030517979e-05
8.129369039444505e-05
5.649222552834297e-05
3.169076066224089e-05
1.7912169069961946e-05
1.2400732433050376e-05
-1.377859159228559e-06
-1.7912169069963278e-05
-3.4446478980697995e-05
-3.995791561760957e-05
-3.995791561760957e-05
-3.995791561760957e-05
-5.098078889143272e-05
-6.200366216525588e-05
-6.751509880216745e-05
-6.200366216525588e-05
-5.9247943846800084e-05
-6.475938048371164e-05
-7.85379720759906e-05
-8.404940871290214e-05
-7.57822537575348e-05
-6.200366216525588e-05
-6.475938048371164e-05
-6.200366216525588e-05
-4.8225070572976926e-05
-3.720219729915378e-05
-3.4446478980697995e-05
-4.2713633936065354e-05
-3.720219729915378e-05
-1.7912169069963278e-05
-1.377859159228559e-06
6.8892957961388014e-06
-1.377859159228559e-06
-4.133577477684346e-06
-1.377859159228559e-06
-4.133577477684346e-06
-9.64501411459592e-06
-2.066788738841907e-05
-3.169076066224221e-05
-5.098078889143272e-05
-5.6492225528344285e-05
-5.9247943846800084e-05
-7.027081712062322e-05
-8.129369039444639e-05
-8.129369039444639e-05
-7.57822537575348e-05
-7.027081712062322e-05
-7.027081712062322e-05
-7.85379720759906e-05
-8.129369039444639e-05
-7.85379720759906e-05
-7.302653543907902e-05
-7.57822537575348e-05
-8.680512703135793e-05
-7.57822537575348e-05
-2.342360570687485e-05
8.956084534981241e-05
0.0002852168459601733
0.0005635443961242077
0.0008308490730144192
0.0010292607919432355
0.0010761080033569843
0.0008336047913328749
0.0003568655222400236
-8.956084534981374e-05
-0.00029348400091554195
-0.0002631710994125282
-0.00019703385976958942
-0.00016947667658503157
-0.0001612095216296642
-0.000150186648355841
-0.00014191949340047367
-0.0001364080567635621
-0.0001391637750820179
-0.00014191949340047367
-0.00014191949340047367
-0.00013089662012665053
-0.0001226294651712832
-0.0001198737468528274
-0.0001198737468528274
-0.0001198737468528274
-0.00011436231021591582
-0.00010885087357900426
-0.00010333943694209268
-0.00010609515526054846
-0.00010885087357900426
-9.231656366826955e-05
-8.404940871290214e-05
-8.129369039444639e-05
-8.129369039444639e-05
-7.302653543907902e-05
-5.6492225528344285e-05
-3.995791561760957e-05
-3.720219729915378e-05
-3.720219729915378e-05
-2.342360570687485e-05
-1.377859159228559e-06
1.7912169069961946e-05
3.444647898069667e-05
4.82250705729756e-05
6.200366216525454e-05
8.68051270313566e-05
0.00011436231021591448
0.00013089662012664922
0.00013640805676356078
0.00014191949340047234
0.00015294236667429551
0.00016396523994811866
0.00016396523994811866
0.00015294236667429551
0.00014191949340047234
0.00013640805676356078
0.00013365233844510492
0.00012262946517128183
9.782800030517979e-05
7.30265354390777e-05
5.098078889143139e-05
3.720219729915245e-05
2.3423605706873515e-05
1.3778591592272275e-06
-2.342360570687485e-05
-3.995791561760957e-05
-4.8225070572976926e-05
-5.6492225528344285e-05
-7.302653543907902e-05
-8.956084534981374e-05
-0.00010333943694209268
-0.00010333943694209268
-0.00010333943694209268
-0.00010609515526054846
-0.0001198737468528274
-0.00013089662012665053
-0.00012538518348973897
-0.0001198737468528274
-0.00012538518348973897
-0.0001391637750820179
-0.00014467521171892948
-0.00014191949340047367
-0.0001391637750820179
-0.0001364080567635621
-0.0001391637750820179
-0.00014467521171892948
-0.0001391637750820179
-0.0001226294651712832
-0.00011436231021591582
-0.00011436231021591582
-0.0001171180285343716
-0.00011436231021591582
-0.00010058371862363688
-7.57822537575348e-05
-6.751509880216745e-05
-7.57822537575348e-05
-7.027081712062322e-05
-6.751509880216745e-05
-7.57822537575348e-05
-9.507228198672531e-05
-0.00010609515526054846
-0.00011160659189746003
-0.0001198737468528274
-0.0001336523384451063
-0.00014467521171892948
-0.0001584538033112084
-0.0001612095216296642
-0.00015569808499275262
-0.00015294236667429682
-0.0001584538033112084
-0.00016672095826657574
-0.00016672095826657574
-0.00016396523994811996
-0.0001612095216296642
-0.00016396523994811996
-0.00017223239490348733
-0.00017223239490348733
-0.000150186648355841
-0.00010333943694209268
-9.64501411459592e-06
0.00016672095826657444
0.0004450485084306089
0.0007399103685053779
0.0009796578622110316
0.0010623294117647053
0.000858406256198977
0.0003844227054245816
-8.680512703135793e-05
-0.0003403312123292903
-0.0003430869306477461
-0.0002824611276417188
-0.0002604153810940725
-0.00024388107118333775
-0.00023285819790951464
-0.00022459104295414727
-0.00022734676127260308
-0.00023561391622797047
-0.00023285819790951464
-0.0002190796063172357
-0.0002108124513618684
-0.00021356816968032413
-0.00021632388799877996
-0.00021356816968032413
-0.00020254529640650095
-0.00019703385976958942
-0.00019703385976958942
-0.0001997895780880452
-0.0001997895780880452
-0.00018601098649576628
-0.00017498811322194308
-0.00017223239490348733
-0.00017498811322194308
-0.00017223239490348733
-0.0001612095216296642
-0.00014743093003738526
-0.0001364080567635621
-0.0001364080567635621
-0.00012814090180819475
-0.00011436231021591582
-9.507228198672531e-05
-7.57822537575348e-05
-5.6492225528344285e-05
-3.4446478980697995e-05
-4.133577477684346e-06
1.7912169069961946e-05
3.444647898069667e-05
4.546935225451981e-05
6.200366216525454e-05
8.129369039444505e-05
9.23165636682682e-05
9.507228198672396e-05
9.507228198672396e-05
9.23165636682682e-05
8.956084534981241e-05
8.404940871290084e-05
7.30265354390777e-05
5.373650720988717e-05
3.169076066224089e-05
1.7912169069961946e-05
4.133577477683014e-06
-1.5156450751507488e-05
-3.995791561760957e-05
-6.751509880216745e-05
-8.404940871290214e-05
-9.507228198672531e-05
-0.00010885087357900426
-0.00012814090180819475
-0.00014743093003738526
-0.0001612095216296642
-0.00016672095826657574
-0.00016947667658503157
-0.00018049954985885472
-0.00019427814145113364
-0.00020254529640650095
-0.0001997895780880452
-0.00019703385976958942
-0.00020530101472495681
-0.00021632388799877996
-0.0002218353246356915
-0.0002190796063172357
-0.0002190796063172357
-0.0002190796063172357
-0.00022734676127260308
-0.00023285819790951464
-0.00023010247959105888
-0.00021632388799877996
-0.00021356816968032413
-0.0002190796063172357
-0.0002218353246356915
-0.00021356816968032413
-0.0001997895780880452
-0.00019427814145113364
-0.00019152242313267784
-0.00018325526817731047
-0.00016672095826657574
-0.000150186648355841
-0.00014191949340047367
-0.00014191949340047367
-0.00014743093003738526
-0.0001584538033112084
-0.0001584538033112084
-0.0001584538033112084
-0.00017223239490348733
-0.00019427814145113364
-0.0002108124513618684
-0.00021632388799877996
-0.0002190796063172357
-0.00023010247959105888
-0.00024112535286488197
-0.00024112535286488197
-0.00023285819790951464
-0.00023285819790951464
-0.00023836963454642628
-0.00024112535286488197
-0.00023561391622797047
-0.00023561391622797047
-0.00023836963454642628
-0.00023561391622797047
-0.0002190796063172357
-0.0001336523384451063
5.9247943846798756e-05
0.0003733998321507585
0.0007261317769130989
0.0010127264820325008
0.0011642909895475692
0.0010320165102616916
0.0005497658045319286
-4.2713633936065354e-05
-0.0004257584802014197
-0.0004781171282520797
-0.00040095701533531767
-0.0003485983672846577
-0.0003293083390554673
-0.00032379690241855563
-0.00032379690241855563
-0.0003210411841000998
-0.0003100183108262768
-0.00030175115587090934
-0.00030726259250782084
-0.0003100183108262768
-0.0003045068741893651
-0.00029348400091554195
-0.0002852168459601746
-0.00028797256427863044
-0.00029072828259708617
-0.0002852168459601746
-0.00027419397268635144
-0.00026592681773098404
-0.00026592681773098404
-0.0002686825360494398
-0.00026592681773098404
-0.00024939250782024937
-0.00023836963454642628
-0.00023010247959105888
-0.00022734676127260308
-0.0002218353246356915
-0.0002080567330434125
-0.00019152242313267784
-0.00018049954985885472
-0.00017498811322194308
-0.0001612095216296642
-0.0001336523384451063
-0.00010885087357900426
-8.680512703135793e-05
-7.302653543907902e-05
-5.6492225528344285e-05
-3.995791561760957e-05
-1.240073243305171e-05
6.8892957961388014e-06
1.5156450751506162e-05
2.066788738841773e-05
3.169076066224089e-05
3.444647898069667e-05
2.6179324025329308e-05
9.64501411459459e-06
-4.133577477684346e-06
-1.5156450751507488e-05
-2.342360570687485e-05
-4.2713633936065354e-05
-7.302653543907902e-05
-9.507228198672531e-05
-0.00011160659189746003
-0.00012538518348973897
-0.00014467521171892948
-0.00016672095826657574
-0.00018876670481422206
-0.00020530101472495681
-0.00021356816968032413
-0.00022459104295414727
-0.00023836963454642628
-0.00024939250782024937
-0.0002604153810940725
-0.00025765966277561676
-0.0002604153810940725
-0.00027143825436789566
-0.00028797256427863044
-0.00028797256427863044
-0.0002852168459601746
-0.0002824611276417188
-0.00029072828259708617
-0.0002989954375524536
-0.0002989954375524536
-0.0002962397192339978
-0.00029348400091554195
-0.0002989954375524536
-0.00030175115587090934
-0.0002989954375524536
-0.00029072828259708617
-0.0002824611276417188
-0.00027694969100480727
-0.00027694969100480727
-0.00027419397268635144
-0.00026592681773098404
-0.0002521482261387052
-0.00023836963454642628
-0.0002218353246356915
-0.00021356816968032413
-0.00020530101472495681
-0.00019703385976958942
-0.00019427814145113364
-0.00020254529640650095
-0.0002190796063172357
-0.00022459104295414727
-0.00022459104295414727
-0.00023561391622797047
-0.0002521482261387052
-0.00026592681773098404
-0.00027970540932326305
-0.00027970540932326305
-0.00027694969100480727
-0.0002824611276417188
-0.00029072828259708617
-0.00029348400091554195
-0.00029072828259708617
-0.0002824611276417188
-0.0002824611276417188
-0.00029348400091554195
-0.00029348400091554195
-0.00028797256427863044
-0.0002686825360494398
-0.0002108124513618684
-6.200366216525588e-05
0.00022459104295414594
0.0005883458609903097
0.0009190320592050041
0.0011532681162737465
0.0011477566796368347
0.0007784904249637591
0.0001694766765850302
-0.0003348197756923787
-0.0005166971847104609
-0.0004698499732967123
-0.00041749132524605234
-0.0003899341420614945
-0.00037615555046921565
-0.000370644113832304
-0.00037615555046921565
-0.00037891126878767127
-0.000370644113832304
-0.00036237695887693665
-0.0003568655222400251
-0.0003568655222400251
-0.00036237695887693665
-0.00035410980392156926
-0.0003403312123292903
-0.0003320640573739229
-0.0003348197756923787
-0.0003293083390554673
-0.0003210411841000998
-0.00030726259250782084
-0.0002962397192339978
-0.0002852168459601746
-0.0002852168459601746
-0.00027694969100480727
-0.00025765966277561676
-0.00023836963454642628
-0.00023285819790951464
-0.00023010247959105888
-0.0002218353246356915
-0.00020254529640650095
-0.00017498811322194308
-0.00016396523994811996
-0.00015294236667429682
-0.0001364080567635621
-0.00011436231021591582
-8.956084534981374e-05
-6.751509880216745e-05
-5.6492225528344285e-05
-4.2713633936065354e-05
-2.342360570687485e-05
-4.133577477684346e-06
6.8892957961388014e-06
4.133577477683014e-06
1.3778591592272275e-06
-1.377859159228559e-06
1.3778591592272275e-06
-1.377859159228559e-06
-1.7912169069963278e-05
-3.995791561760957e-05
-5.9247943846800084e-05
-7.027081712062322e-05
-8.404940871290214e-05
-0.0001336523384451063
-0.000150186648355841
-0.00016396523994811996
-0.00017498811322194308
-0.00018876670481422206
-0.0002108124513618684
-0.00022734676127260308
-0.00023285819790951464
-0.00023836963454642628
-0.00024939250782024937
-0.0002604153810940725
-0.0002686825360494398
-0.00027419397268635144
-0.00026592681773098404
-0.0002686825360494398
-0.00027694969100480727
-0.0002852168459601746
-0.00028797256427863044
-0.0002824611276417188
-0.0002824611276417188
-0.00029072828259708617
-0.0002989954375524536
-0.00030175115587090934
-0.00030175115587090934
-0.0002962397192339978
-0.0002962397192339978
-0.00030175115587090934
-0.00030175115587090934
-0.00028797256427863044
-0.00027970540932326305
-0.0002824611276417188
-0.0002824611276417188
-0.00027419397268635144
-0.0002549039444571609
-0.00023561391622797047
-0.00022734676127260308
-0.00023010247959105888
-0.00023285819790951464
-0.00023010247959105888
-0.00023010247959105888
-0.00023836963454642628
-0.0002521482261387052
-0.0002686825360494398
-0.0002852168459601746
-0.0002852168459601746
-0.0002852168459601746
-0.0002962397192339978
-0.0003100183108262768
-0.0003127740291447324
-0.00030726259250782084
-0.00030175115587090934
-0.00030175115587090934
-0.0003100183108262768
-0.0003127740291447324
-0.00030726259250782084
-0.00030175115587090934
-0.0003045068741893651
-0.0003127740291447324
-0.0003045068741893651
-0.0002686825360494398
-0.00017498811322194308
9.64501411459459e-06
0.00030450687418936376
0.0006214144808117793
0.0008749405661097116
0.0008418719462882423
0.00037064411383230263
-0.00016947667658503157
-0.0004891400015259028
-0.0005139414663920051
-0.00043402563515678713
-0.00039268986037995033
-0.00037891126878767127
-0.00036788839551384826
-0.00035410980392156926
-0.0003485983672846577
-0.00035410980392156926
-0.0003568655222400251
-0.0003513540856031135
-0.0003375754940108345
-0.0003293083390554673
-0.00032655262073701135
-0.00032655262073701135
-0.00032379690241855563
-0.00031828546578164407
-0.00030726259250782084
-0.00030175115587090934
-0.0003045068741893651
-0.0003045068741893651
-0.0002962397192339978
-0.00028797256427863044
-0.00027694969100480727
-0.00027419397268635144
-0.00027143825436789566
-0.00026592681773098404
-0.00024939250782024937
-0.00023836963454642628
-0.00023285819790951464
-0.00022734676127260308
-0.0002108124513618684
-0.00018876670481422206
-0.00016672095826657574
-0.00015294236667429682
-0.00014191949340047367
-0.0001226294651712832
-9.78280003051811e-05
-7.302653543907902e-05
-5.3736507209888505e-05
-4.2713633936065354e-05
-3.4446478980697995e-05
-2.342360570687485e-05
-1.240073243305171e-05
-9.64501411459592e-06
-1.5156450751507488e-05
-2.6179324025330647e-05
-3.169076066224221e-05
-3.4446478980697995e-05
-5.098078889143272e-05
-7.302653543907902e-05
-9.507228198672531e-05
-0.00011436231021591582
-0.00012814090180819475
-0.00014191949340047367
-0.00016396523994811996
-0.00018876670481422206
-0.00020530101472495681
-0.0002190796063172357
-0.00023285819790951464
-0.0002466367895017936
-0.0002686825360494398
-0.0002852168459601746
-0.0002852168459601746
-0.00029072828259708617
-0.00030175115587090934
-0.0003100183108262768
-0.0003127740291447324
-0.00030726259250782084
-0.00030726259250782084
-0.0003127740291447324
-0.0003210411841000998
-0.0003210411841000998
-0.0003155297474631883
-0.00031828546578164407
-0.00032379690241855563
-0.0003293083390554673
-0.0003210411841000998
-0.00030726259250782084
-0.0002989954375524536
-0.00030175115587090934
-0.0002989954375524536
-0.00029348400091554195
-0.0002852168459601746
-0.00027143825436789566
-0.00025765966277561676
-0.0002466367895017936
-0.00023836963454642628
-0.00023010247959105888
-0.00022459104295414727
-0.00022459104295414727
-0.00023561391622797047
-0.00024939250782024937
-0.0002521482261387052
-0.0002521482261387052
-0.0002631710994125282
-0.0002852168459601746
-0.0002989954375524536
-0.00030175115587090934
-0.0002989954375524536
-0.0002989954375524536
-0.0003100183108262768
-0.0003155297474631883
-0.0003100183108262768
-0.00030175115587090934
-0.00030175115587090934
-0.00030726259250782084
-0.0003155297474631883
-0.0003155297474631883
-0.00030726259250782084
-0.0002962397192339978
-0.00027143825436789566
-0.0002108124513618684
-7.302653543907902e-05
0.000172232394903486
0.000456071381704432
0.0006930631570916297
0.0008363605096513305
0.0007840018616006707
0.0004422927901121532
-3.169076066224221e-05
-0.0003899341420614945
-0.0005056743114366376
-0.00045331566338597764
-0.00040371273365377345
-0.00037339983215075977
-0.0003596212405584808
-0.0003596212405584808
-0.00036237695887693665
-0.00035410980392156926
-0.0003485983672846577
-0.0003513540856031135
-0.0003513540856031135
-0.0003485983672846577
-0.0003375754940108345
-0.00032379690241855563
-0.00032379690241855563
-0.0003348197756923787
-0.0003293083390554673
-0.00031828546578164407
-0.00030726259250782084
-0.00030726259250782084
-0.0003127740291447324
-0.0003100183108262768
-0.0002989954375524536
-0.00027970540932326305
-0.00027419397268635144
-0.00027419397268635144
-0.00027143825436789566
-0.0002604153810940725
-0.00024388107118333775
-0.00023010247959105888
-0.0002218353246356915
-0.00020530101472495681
-0.00018601098649576628
-0.0001612095216296642
-0.0001364080567635621
-0.0001198737468528274
-0.00010609515526054846
-8.404940871290214e-05
-5.9247943846800084e-05
-4.2713633936065354e-05
-3.4446478980697995e-05
-3.4446478980697995e-05
-3.169076066224221e-05
-2.342360570687485e-05
-1.7912169069963278e-05
-2.6179324025330647e-05
-4.5469352254521147e-05
-6.200366216525588e-05
-7.027081712062322e-05
-7.85379720759906e-05
-9.507228198672531e-05
-0.0001198737468528274
-0.00014743093003738526
-0.00016672095826657574
-0.00017223239490348733
-0.00018601098649576628
-0.00021356816968032413
-0.00023285819790951464
-0.00024112535286488197
-0.0002466367895017936
-0.0002549039444571609
-0.00026592681773098404
-0.00027970540932326305
-0.0002824611276417188
-0.00027970540932326305
-0.00027970540932326305
-0.0002852168459601746
-0.0002962397192339978
-0.0003045068741893651
-0.00030175115587090934
-0.0002962397192339978
-0.0003045068741893651
-0.00030726259250782084
-0.00030175115587090934
-0.00029072828259708617
-0.0002824611276417188
-0.0002824611276417188
-0.0002852168459601746
-0.00027419397268635144
-0.0002631710994125282
-0.00025765966277561676
-0.0002549039444571609
-0.00024939250782024937
-0.00023285819790951464
-0.00021632388799877996
-0.0002080567330434125
-0.0002080567330434125
-0.00021632388799877996
-0.0002190796063172357
-0.0002190796063172357
-0.0002190796063172357
-0.00023010247959105888
-0.0002521482261387052
-0.0002686825360494398
-0.00027143825436789566
-0.0002686825360494398
-0.00027419397268635144
-0.0002824611276417188
-0.00029072828259708617
-0.00028797256427863044
-0.00027970540932326305
-0.00027970540932326305
-0.0002852168459601746
-0.00028797256427863044
-0.0002852168459601746
-0.00027419397268635144
-0.00027143825436789566
-0.00027419397268635144
-0.00025765966277561676
-0.00019703385976958942
-5.9247943846800084e-05
0.00017774383154039756
0.000469849973296711
0.0007261317769130989
0.0008942305943389022
0.0008611619745174325
0.0005277200579842825
3.720219729915245e-05
-0.0003513540856031135
-0.00048087284657053543
-0.00041749132524605234
-0.0003596212405584808
-0.0003348197756923787
-0.0003293083390554673
-0.00032379690241855563
-0.00031828546578164407
-0.0003100183108262768
-0.0003045068741893651
-0.00030726259250782084
-0.00030726259250782084
-0.0002989954375524536
-0.00028797256427863044
-0.0002824611276417188
-0.0002824611276417188
-0.0002824611276417188
-0.00027694969100480727
-0.0002521482261387052
-0.0002521482261387052
-0.00025765966277561676
-0.00024939250782024937
-0.00023561391622797047
-0.0002218353246356915
-0.0002190796063172357
-0.00021632388799877996
-0.0002080567330434125
-0.00019152242313267784
-0.0001777438315403989
-0.00017223239490348733
-0.00016672095826657574
-0.00015294236667429682
-0.00013089662012665053
-0.00010609515526054846
-8.404940871290214e-05
-7.027081712062322e-05
-5.6492225528344285e-05
-3.169076066224221e-05
-4.133577477684346e-06
1.7912169069961946e-05
2.6179324025329308e-05
3.169076066224089e-05
4.271363393606403e-05
5.098078889143139e-05
5.649222552834297e-05
5.373650720988717e-05
3.9957915617608246e-05
3.169076066224089e-05
2.6179324025329308e-05
1.5156450751506162e-05
-4.133577477684346e-06
-3.169076066224221e-05
-5.098078889143272e-05
-6.475938048371164e-05
-7.85379720759906e-05
-9.231656366826955e-05
-0.00011436231021591582
-0.00013089662012665053
-0.00014191949340047367
-0.000150186648355841
-0.00016396523994811996
-0.0001777438315403989
-0.00018876670481422206
-0.00019427814145113364
-0.00019152242313267784
-0.00019427814145113364
-0.00020254529640650095
-0.0002108124513618684
-0.0002108124513618684
-0.00020530101472495681
-0.00020254529640650095
-0.0002080567330434125
-0.00021632388799877996
-0.0002190796063172357
-0.0002108124513618684
-0.00020530101472495681
-0.00020530101472495681
-0.00020530101472495681
-0.00020254529640650095
-0.00018876670481422206
-0.00017498811322194308
-0.00017223239490348733
-0.0001777438315403989
-0.00016947667658503157
-0.0001171180285343716
-0.00010333943694209268
-0.00010885087357900426
-0.00011160659189746003
-0.00010885087357900426
-0.00010333943694209268
-0.00010885087357900426
-0.0001198737468528274
-0.0001336523384451063
-0.00014467521171892948
-0.000150186648355841
-0.00015294236667429682
-0.00016396523994811996
-0.00017498811322194308
-0.00017223239490348733
-0.00016672095826657574
-0.00016396523994811996
-0.0001612095216296642
-0.00016396523994811996
-0.00016672095826657574
-0.0001612095216296642
-0.00015294236667429682
-0.00015569808499275262
-0.0001612095216296642
-0.00015294236667429682
-0.00011160659189746003
-1.240073243305171e-05
0.00018049954985885336
0.0004808728465705341
0.0008115590447852286
0.0011009094682230861
0.001244206820782787
0.0010871308766308072
0.0005911015793087656
2.6179324025329308e-05
-0.0003100183108262768
-0.0003348197756923787
-0.0002604153810940725
-0.00022459104295414727
-0.00021632388799877996
-0.0002080567330434125
-0.00019152242313267784
-0.00018049954985885472
-0.0001777438315403989
-0.00018325526817731047
-0.00018049954985885472
-0.00016947667658503157
-0.0001612095216296642
-0.0001584538033112084
-0.0001584538033112084
-0.00015569808499275262
-0.00014467521171892948
-0.0001364080567635621
-0.0001336523384451063
-0.00013089662012665053
-0.00013089662012665053
-0.0001226294651712832
-0.00010885087357900426
-9.78280003051811e-05
-9.507228198672531e-05
-9.231656366826955e-05
-8.129369039444639e-05
-6.475938048371164e-05
-4.8225070572976926e-05
-3.995791561760957e-05
-2.342360570687485e-05
1.3778591592272275e-06
2.6179324025329308e-05
4.546935225451981e-05
5.9247943846798756e-05
7.578225375753347e-05
0.00010609515526054714
0.00013640805676356078
0.00015845380331120705
0.00016672095826657444
0.00017498811322194178
0.00019152242313267648
0.00020254529640649968
0.00020530101472495543
0.00019978957808804387
0.00019427814145113231
0.00018876670481422076
0.00018601098649576498
0.00017498811322194178
0.00015294236667429551
0.00013089662012664922
0.00011160659189745871
9.782800030517979e-05
8.129369039444505e-05
5.649222552834297e-05
3.169076066224089e-05
1.2400732433050376e-05
4.133577477683014e-06
-6.889295796140132e-06
-2.342360570687485e-05
-4.2713633936065354e-05
-5.6492225528344285e-05
-5.9247943846800084e-05
-5.9247943846800084e-05
-6.751509880216745e-05
-7.85379720759906e-05
-8.680512703135793e-05
-8.129369039444639e-05
-8.129369039444639e-05
-8.404940871290214e-05
-9.231656366826955e-05
-0.00010058371862363688
-0.00010058371862363688
-9.507228198672531e-05
-8.680512703135793e-05
-8.680512703135793e-05
-8.956084534981374e-05
-8.680512703135793e-05
-7.302653543907902e-05
-6.200366216525588e-05
-6.200366216525588e-05
-6.475938048371164e-05
-5.3736507209888505e-05
-3.169076066224221e-05
-6.889295796140132e-06
4.133577477683014e-06
-1.377859159228559e-06
-1.377859159228559e-06
6.8892957961388014e-06
6.8892957961388014e-06
-1.377859159228559e-06
-1.5156450751507488e-05
-2.8935042343786426e-05
-3.995791561760957e-05
-4.5469352254521147e-05
-6.200366216525588e-05
-7.302653543907902e-05
-7.302653543907902e-05
-6.475938048371164e-05
-6.200366216525588e-05
-6.751509880216745e-05
-7.027081712062322e-05
-7.027081712062322e-05
-6.475938048371164e-05
-5.9247943846800084e-05
-6.475938048371164e-05
-7.57822537575348e-05
-6.475938048371164e-05
-1.240073243305171e-05
0.00011160659189745871
0.00034584264896620056
0.0006930631570916297
0.0010457951018539703
0.001324122652018005
0.0013985270466163114
0.0011146880598153653
0.0005194529030289152
-4.2713633936065354e-05
-0.0002962397192339978
-0.0002604153810940725
-0.00018876670481422206
-0.00016396523994811996
-0.0001584538033112084
-0.00014467521171892948
-0.00012814090180819475
-0.0001198737468528274
-0.0001198737468528274
-0.0001198737468528274
-0.00011160659189746003
-0.00010333943694209268
-9.78280003051811e-05
-0.00010058371862363688
-0.00010609515526054846
-0.00010058371862363688
-8.956084534981374e-05
-8.129369039444639e-05
-7.85379720759906e-05
-8.680512703135793e-05
-8.129369039444639e-05
-6.751509880216745e-05
-5.3736507209888505e-05
-4.8225070572976926e-05
-4.8225070572976926e-05
-4.2713633936065354e-05
-2.8935042343786426e-05
-1.240073243305171e-05
-1.377859159228559e-06
6.8892957961388014e-06
1.5156450751506162e-05
3.169076066224089e-05
5.649222552834297e-05
7.853797207598924e-05
9.507228198672396e-05
0.00010885087357900291
0.00013089662012664922
0.00016120952162966288
0.00018601098649576498
0.00019978957808804387
0.00020805673304341124
0.00021632388799877858
0.00023285819790951333
0.00024112535286488067
0.00022734676127260172
0.0002190796063172344
0.000210812451361867
0.00020254529640649968
0.00018876670481422076
0.00016396523994811866
0.00014191949340047234
0.0001253851834897376
0.00011160659189745871
9.507228198672396e-05
6.751509880216611e-05
4.271363393606403e-05
2.6179324025329308e-05
1.7912169069961946e-05
6.8892957961388014e-06
-1.240073243305171e-05
-3.169076066224221e-05
-4.2713633936065354e-05
-4.2713633936065354e-05
-4.5469352254521147e-05
-5.6492225528344285e-05
-7.027081712062322e-05
-7.57822537575348e-05
-7.027081712062322e-05
-7.027081712062322e-05
-7.85379720759906e-05
-8.680512703135793e-05
-9.231656366826955e-05
-9.231656366826955e-05
-8.404940871290214e-05
-8.129369039444639e-05
-8.404940871290214e-05
-8.404940871290214e-05
-7.85379720759906e-05
-6.475938048371164e-05
-5.9247943846800084e-05
-6.475938048371164e-05
-5.9247943846800084e-05
-4.2713633936065354e-05
-1.7912169069963278e-05
1.3778591592272275e-06
4.133577477683014e-06
-1.377859159228559e-06
4.133577477683014e-06
9.64501411459459e-06
6.8892957961388014e-06
-9.64501411459592e-06
-2.6179324025330647e-05
-3.720219729915378e-05
-4.2713633936065354e-05
-4.8225070572976926e-05
-5.9247943846800084e-05
-7.027081712062322e-05
-7.302653543907902e-05
-7.027081712062322e-05
-6.475938048371164e-05
-6.751509880216745e-05
-7.302653543907902e-05
-7.57822537575348e-05
-7.302653543907902e-05
-6.751509880216745e-05
-6.475938048371164e-05
-7.302653543907902e-05
-7.85379720759906e-05
1.5156450751506162e-05
0.0001694766765850302
0.0004422927901121532
0.0007922690165560381
0.0011229552147707324
0.0013627027084763858
0.0013516798352025624
0.0009686349889372082
0.0003485983672846564
-0.0001391637750820179
-0.00028797256427863044
-0.0002218353246356915
-0.00016947667658503157
-0.0001584538033112084
-0.00015294236667429682
-0.00014191949340047367
-0.00012814090180819475
-0.00012538518348973897
-0.00012814090180819475
-0.00012538518348973897
-0.0001171180285343716
-0.00010609515526054846
-0.00010333943694209268
-0.00010609515526054846
-0.00011160659189746003
-0.00010609515526054846
-9.78280003051811e-05
-8.956084534981374e-05
-9.231656366826955e-05
-9.507228198672531e-05
-8.680512703135793e-05
-7.302653543907902e-05
-6.475938048371164e-05
-6.200366216525588e-05
-6.200366216525588e-05
-5.098078889143272e-05
-3.169076066224221e-05
-1.7912169069963278e-05
-1.240073243305171e-05
-9.64501411459592e-06
1.3778591592272275e-06
2.066788738841773e-05
4.546935225451981e-05
6.200366216525454e-05
7.30265354390777e-05
9.507228198672396e-05
0.00012262946517128183
0.00015294236667429551
0.00017498811322194178
0.0001832552681773092
0.00019427814145113231
0.000210812451361867
0.00022459104295414594
0.00023285819790951333
0.00022459104295414594
0.00021632388799877858
0.00020805673304341124
0.00020530101472495543
0.00019427814145113231
0.00017498811322194178
0.00014743093003738393
0.00013089662012664922
0.00011711802853437029
0.00010058371862363556
8.129369039444505e-05
2.8935042343785094e-05
1.2400732433050376e-05
1.3778591592272275e-06
-1.5156450751507488e-05
-3.720219729915378e-05
-5.3736507209888505e-05
-5.9247943846800084e-05
-6.200366216525588e-05
-7.027081712062322e-05
-8.404940871290214e-05
-9.231656366826955e-05
-9.507228198672531e-05
-9.231656366826955e-05
-9.507228198672531e-05
-0.00010333943694209268
-0.00011436231021591582
-0.00011436231021591582
-0.00010885087357900426
-0.00010333943694209268
-0.00010609515526054846
-0.00011160659189746003
-0.00010885087357900426
-9.507228198672531e-05
-8.956084534981374e-05
-9.231656366826955e-05
-9.231656366826955e-05
-8.404940871290214e-05
-6.475938048371164e-05
-3.995791561760957e-05
-2.6179324025330647e-05
-2.8935042343786426e-05
-3.169076066224221e-05
-2.8935042343786426e-05
-2.342360570687485e-05
-3.4446478980697995e-05
-4.8225070572976926e-05
-5.6492225528344285e-05
-6.751509880216745e-05
-7.57822537575348e-05
-8.129369039444639e-05
-9.507228198672531e-05
-0.00010609515526054846
-0.00010885087357900426
-0.00010609515526054846
-0.00010609515526054846
-0.00011160659189746003
-0.0001171180285343716
-0.0001171180285343716
-0.0001171180285343716
-0.00011436231021591582
-0.00011436231021591582
-0.0001198737468528274
-0.00011160659189746003
-8.129369039444639e-05
4.133577477683014e-06
0.00018876670481422076
0.0004974071564812689
0.0008666734111543443
0.0011890924544136717
0.0013737255817502093
0.0012607411306935217
0.000767467551689936
0.00013916377508201656
-0.00027419397268635144
-0.0003375754940108345
-0.0002190796063172357
-0.00020530101472495681
-0.00019152242313267784
-0.0001777438315403989
-0.00016947667658503157
-0.00016947667658503157
-0.00017498811322194308
-0.00016396523994811996
-0.000150186648355841
-0.0001391637750820179
-0.0001364080567635621
-0.00014191949340047367
-0.0001391637750820179
-0.00013089662012665053
-0.0001226294651712832
-0.0001226294651712832
-0.0001226294651712832
-0.0001198737468528274
-0.00010885087357900426
-9.507228198672531e-05
-9.231656366826955e-05
-9.231656366826955e-05
-8.956084534981374e-05
-7.85379720759906e-05
-5.6492225528344285e-05
-4.5469352254521147e-05
-3.995791561760957e-05
-3.4446478980697995e-05
-1.7912169069963278e-05
4.133577477683014e-06
2.6179324025329308e-05
3.9957915617608246e-05
5.373650720988717e-05
7.30265354390777e-05
0.00010333943694209132
0.0001253851834897376
0.00013916377508201656
0.00015018664835583973
0.00015845380331120705
0.00017774383154039756
0.00019427814145113231
0.00019152242313267648
0.00018049954985885336
0.00017498811322194178
0.000172232394903486
0.00016672095826657444
0.00015018664835583973
0.00013089662012664922
0.00010609515526054714
8.956084534981241e-05
7.853797207598924e-05
6.200366216525454e-05
3.720219729915245e-05
1.5156450751506162e-05
-1.377859159228559e-06
-6.889295796140132e-06
-2.066788738841907e-05
-4.2713633936065354e-05
-6.200366216525588e-05
-7.302653543907902e-05
-7.57822537575348e-05
-7.85379720759906e-05
-8.680512703135793e-05
-9.78280003051811e-05
-0.00010333943694209268
-0.00010333943694209268
-0.00010609515526054846
-0.0001198737468528274
-0.00013089662012665053
-0.00012814090180819475
-0.0001198737468528274
-0.0001198737468528274
-0.0001226294651712832
-0.0001198737468528274
-0.00011436231021591582
-0.00010058371862363688
-9.507228198672531e-05
-0.00010058371862363688
-0.00010333943694209268
-9.231656366826955e-05
-6.751509880216745e-05
-5.098078889143272e-05
-4.8225070572976926e-05
-4.8225070572976926e-05
-4.8225070572976926e-05
-4.2713633936065354e-05
-4.5469352254521147e-05
-5.6492225528344285e-05
-6.751509880216745e-05
-7.85379720759906e-05
-8.956084534981374e-05
-9.507228198672531e-05
-0.00010058371862363688
-0.00011436231021591582
-0.00012538518348973897
-0.0001198737468528274
-0.00011160659189746003
-0.00011160659189746003
-0.0001198737468528274
-0.00012814090180819475
-0.0001226294651712832
-0.00011436231021591582
-0.00011436231021591582
-0.0001198737468528274
-0.00012538518348973897
-0.00010885087357900426
-6.200366216525588e-05
4.546935225451981e-05
0.0002383696345464249
0.0005222086213473709
0.0008143147631036844
0.001051306538490882
0.001136733806363011
0.0009328106507972832
0.0004450485084306089
-4.5469352254521147e-05
-0.00030175115587090934
-0.0002962397192339978
-0.00023010247959105888
-0.00020254529640650095
-0.00018876670481422206
-0.00017223239490348733
-0.0001612095216296642
-0.0001584538033112084
-0.00016396523994811996
-0.00016672095826657574
-0.0001584538033112084
-0.00014743093003738526
-0.00014191949340047367
-0.00014467521171892948
-0.00014743093003738526
-0.00012814090180819475
-0.0001198737468528274
-0.0001226294651712832
-0.00012814090180819475
-0.00012538518348973897
-0.0001171180285343716
-0.00010609515526054846
-0.00010058371862363688
-0.00010333943694209268
-9.78280003051811e-05
-8.404940871290214e-05
-7.027081712062322e-05
-6.200366216525588e-05
-6.200366216525588e-05
-5.3736507209888505e-05
-3.4446478980697995e-05
-1.240073243305171e-05
6.8892957961388014e-06
1.7912169069961946e-05
2.8935042343785094e-05
5.649222552834297e-05
8.68051270313566e-05
0.00010333943694209132
0.00011436231021591448
0.0001253851834897376
0.00013916377508201656
0.00015294236667429551
0.00016120952162966288
0.00015845380331120705
0.00015018664835583973
0.00014743093003738393
0.00014743093003738393
0.00013640805676356078
0.00011436231021591448
9.507228198672396e-05
7.578225375753347e-05
6.200366216525454e-05
4.546935225451981e-05
2.3423605706873515e-05
-4.133577477684346e-06
-2.066788738841907e-05
-3.4446478980697995e-05
-4.5469352254521147e-05
-6.200366216525588e-05
-8.404940871290214e-05
-9.78280003051811e-05
-0.00010333943694209268
-0.00010333943694209268
-0.00010333943694209268
-0.00011436231021591582
-0.00012814090180819475
-0.00013089662012665053
-0.00013089662012665053
-0.00013089662012665053
-0.0001364080567635621
-0.00014467521171892948
-0.000150186648355841
-0.00014743093003738526
-0.0001336523384451063
-0.00012814090180819475
-0.00013089662012665053
-0.00013089662012665053
-0.0001198737468528274
-0.00011160659189746003
-0.00010885087357900426
-0.00010333943694209268
-8.129369039444639e-05
-6.475938048371164e-05
-6.200366216525588e-05
-6.751509880216745e-05
-6.751509880216745e-05
-6.475938048371164e-05
-7.302653543907902e-05
-8.129369039444639e-05
-8.956084534981374e-05
-0.00010609515526054846
-0.00012538518348973897
-0.00012814090180819475
-0.00013089662012665053
-0.0001391637750820179
-0.000150186648355841
-0.000150186648355841
-0.00014467521171892948
-0.00014191949340047367
-0.000150186648355841
-0.00015569808499275262
-0.00015294236667429682
-0.00014743093003738526
-0.00014467521171892948
-0.000150186648355841
-0.0001584538033112084
-0.00014467521171892948
-8.680512703135793e-05
2.8935042343785094e-05
0.00023010247959105753
0.0005139414663920035
0.0007812461432822147
0.0009796578622110316
0.0010044593270771337
0.0007288874952315547
0.0002383696345464249
-0.00018601098649576628
-0.00036237695887693665
-0.0003210411841000998
-0.00025765966277561676
-0.00023285819790951464
-0.00022459104295414727
-0.00021632388799877996
-0.00020530101472495681
-0.0001997895780880452
-0.00020254529640650095
-0.0002080567330434125
-0.0002080567330434125
-0.00019703385976958942
-0.00018601098649576628
-0.00018601098649576628
-0.00019152242313267784
-0.00018876670481422206
-0.00018049954985885472
-0.00016947667658503157
-0.00016672095826657574
-0.00016947667658503157
-0.00017223239490348733
-0.00016672095826657574
-0.00015569808499275262
-0.00014743093003738526
-0.00014467521171892948
-0.00014191949340047367
-0.00012814090180819475
-0.00011160659189746003
-0.00010058371862363688
-9.231656366826955e-05
-7.85379720759906e-05
-5.6492225528344285e-05
-3.4446478980697995e-05
-1.7912169069963278e-05
-6.889295796140132e-06
9.64501411459459e-06
3.720219729915245e-05
6.200366216525454e-05
7.578225375753347e-05
7.853797207598924e-05
8.68051270313566e-05
0.00010333943694209132
0.00011436231021591448
0.00011160659189745871
0.00010058371862363556
8.404940871290084e-05
8.129369039444505e-05
7.578225375753347e-05
6.200366216525454e-05
3.9957915617608246e-05
1.5156450751506162e-05
-1.377859159228559e-06
-1.240073243305171e-05
-2.6179324025330647e-05
-5.098078889143272e-05
-7.57822537575348e-05
-8.680512703135793e-05
-9.507228198672531e-05
-0.00010609515526054846
-0.0001171180285343716
-0.0001336523384451063
-0.00014467521171892948
-0.000150186648355841
-0.000150186648355841
-0.00015294236667429682
-0.00016672095826657574
-0.00017223239490348733
-0.00017223239490348733
-0.00016672095826657574
-0.00016672095826657574
-0.0001777438315403989
-0.00018325526817731047
-0.0001777438315403989
-0.00016396523994811996
-0.0001584538033112084
-0.0001612095216296642
-0.00016396523994811996
-0.00015294236667429682
-0.00014191949340047367
-0.0001391637750820179
-0.0001364080567635621
-0.00012814090180819475
-0.00011160659189746003
-9.507228198672531e-05
-8.680512703135793e-05
-9.507228198672531e-05
-0.00010333943694209268
-0.00010885087357900426
-0.00010885087357900426
-0.00011160659189746003
-0.0001171180285343716
-0.0001364080567635621
-0.00015569808499275262
-0.0001612095216296642
-0.00016396523994811996
-0.0001777438315403989
-0.00018325526817731047
-0.00017498811322194308
-0.00017223239490348733
-0.00017498811322194308
-0.0001777438315403989
-0.00018325526817731047
-0.00018049954985885472
-0.00017498811322194308
-0.00017498811322194308
-0.00017498811322194308
-0.00015569808499275262
-8.956084534981374e-05
5.098078889143139e-05
0.0002989954375524522
0.0005938572976272215
0.0008501391012436096
0.0010209936369878683
0.000985169298847943
0.000637948790722514
0.00013365233844510492
-0.0002549039444571609
-0.00037339983215075977
-0.0003127740291447324
-0.0002631710994125282
-0.00024112535286488197
-0.00023561391622797047
-0.00023285819790951464
-0.00022734676127260308
-0.0002190796063172357
-0.00021632388799877996
-0.00021632388799877996
-0.0002218353246356915
-0.00021632388799877996
-0.00020254529640650095
-0.00019152242313267784
-0.00019427814145113364
-0.0001997895780880452
-0.00019703385976958942
-0.00018876670481422206
-0.00018049954985885472
-0.0001777438315403989
-0.00018325526817731047
-0.0001777438315403989
-0.0001612095216296642
-0.00015294236667429682
-0.000150186648355841
-0.00014743093003738526
-0.0001391637750820179
-0.00012538518348973897
-0.00010609515526054846
-9.78280003051811e-05
-8.956084534981374e-05
-8.129369039444639e-05
-5.9247943846800084e-05
-3.4446478980697995e-05
-1.240073243305171e-05
1.3778591592272275e-06
1.7912169069961946e-05
3.9957915617608246e-05
6.751509880216611e-05
8.68051270313566e-05
9.23165636682682e-05
0.00010058371862363556
0.00011987374685282605
0.0001253851834897376
0.00011711802853437029
0.00010333943694209132
9.23165636682682e-05
8.68051270313566e-05
7.578225375753347e-05
5.649222552834297e-05
2.8935042343785094e-05
9.64501411459459e-06
-1.377859159228559e-06
-1.5156450751507488e-05
-3.4446478980697995e-05
-5.9247943846800084e-05
-7.85379720759906e-05
-8.956084534981374e-05
-8.956084534981374e-05
-9.78280003051811e-05
-0.0001198737468528274
-0.0001364080567635621
-0.0001391637750820179
-0.0001364080567635621
-0.00014191949340047367
-0.000150186648355841
-0.0001584538033112084
-0.0001584538033112084
-0.00015294236667429682
-0.000150186648355841
-0.0001584538033112084
-0.00016672095826657574
-0.00016672095826657574
-0.00015294236667429682
-0.00014191949340047367
-0.0001391637750820179
-0.00014191949340047367
-0.00014191949340047367
-0.0001336523384451063
-0.0001226294651712832
-0.00010885087357900426
-0.00010058371862363688
-9.231656366826955e-05
-7.57822537575348e-05
-6.751509880216745e-05
-6.751509880216745e-05
-7.85379720759906e-05
-8.956084534981374e-05
-9.507228198672531e-05
-8.956084534981374e-05
-0.00010058371862363688
-0.0001198737468528274
-0.00013089662012665053
-0.0001364080567635621
-0.0001364080567635621
-0.0001364080567635621
-0.00014191949340047367
-0.000150186648355841
-0.00014743093003738526
-0.0001391637750820179
-0.00013089662012665053
-0.0001336523384451063
-0.00014191949340047367
-0.00014191949340047367
-0.0001391637750820179
-0.0001336523384451063
-0.0001171180285343716
-6.475938048371164e-05
0.00032379690241855427
0.000676528847180895
0.0010017036087586776
0.0012304282291905084
0.0012276725108720525
0.0008694291294728002
0.0002879725642786291
-0.00019703385976958942
-0.000370644113832304
-0.0003155297474631883
-0.0002466367895017936
-0.00021356816968032413
-0.00019427814145113364
-0.00019152242313267784
-0.00019427814145113364
-0.00019152242313267784
-0.00018049954985885472
-0.00017223239490348733
-0.00016947667658503157
-0.00017223239490348733
-0.00016947667658503157
-0.00016396523994811996
-0.00015294236667429682
-0.00014743093003738526
-0.000150186648355841
-0.00015294236667429682
-0.00014467521171892948
-0.00012814090180819475
-0.0001226294651712832
-0.00012538518348973897
-0.0001226294651712832
-0.00011160659189746003
-9.78280003051811e-05
-8.404940871290214e-05
-7.85379720759906e-05
-7.57822537575348e-05
-6.200366216525588e-05
-4.5469352254521147e-05
-2.6179324025330647e-05
-1.5156450751507488e-05
-4.133577477684346e-06
1.5156450751506162e-05
4.546935225451981e-05
7.02708171206219e-05
8.68051270313566e-05
0.00010058371862363556
0.00012262946517128183
0.00014467521171892812
0.00016120952162966288
0.0001694766765850302
0.00017498811322194178
0.00017774383154039756
0.00018049954985885336
0.0001832552681773092
0.000172232394903486
0.00015018664835583973
0.00013089662012664922
0.00011987374685282605
0.00011160659189745871
9.507228198672396e-05
7.02708171206219e-05
4.82250705729756e-05
2.8935042343785094e-05
1.5156450751506162e-05
1.3778591592272275e-06
-4.2713633936065354e-05
-5.6492225528344285e-05
-6.200366216525588e-05
-6.475938048371164e-05
-7.85379720759906e-05
-9.507228198672531e-05
-0.00010609515526054846
-0.00010609515526054846
-0.00010333943694209268
-0.00011160659189746003
-0.0001226294651712832
-0.0001226294651712832
-0.0001226294651712832
-0.0001171180285343716
-0.0001198737468528274
-0.00012538518348973897
-0.00012814090180819475
-0.0001226294651712832
-0.00011160659189746003
-0.00010609515526054846
-0.00010609515526054846
-0.00010609515526054846
-0.00010058371862363688
-8.956084534981374e-05
-7.027081712062322e-05
-5.3736507209888505e-05
-4.8225070572976926e-05
-3.720219729915378e-05
-2.8935042343786426e-05
-2.342360570687485e-05
-3.169076066224221e-05
-4.8225070572976926e-05
-5.6492225528344285e-05
-5.9247943846800084e-05
-6.751509880216745e-05
-7.85379720759906e-05
-9.78280003051811e-05
-0.00010885087357900426
-0.00010885087357900426
-0.00010058371862363688
-0.00010058371862363688
-0.00011160659189746003
-0.00011436231021591582
-0.00010885087357900426
-0.00010058371862363688
-0.00010058371862363688
-0.00010885087357900426
-0.00011436231021591582
-0.00011436231021591582
-0.00010058371862363688
-7.57822537575348e-05
-1.240073243305171e-05
0.00015294236667429551
0.0004478042267490647
0.0008143147631036844
0.001136733806363011
0.0013434126802471958
0.0012772754406042562
0.0008501391012436096
0.0002383696345464249
-0.0002108124513618684
-0.00032655262073701135
-0.00026592681773098404
-0.0002190796063172357
-0.00019152242313267784
-0.00016672095826657574
-0.00016947667658503157
-0.00017223239490348733
-0.00016672095826657574
-0.00015294236667429682
-0.00014467521171892948
-0.00014743093003738526
-0.000150186648355841
-0.00014191949340047367
-0.00013089662012665053
-0.00012538518348973897
-0.00012814090180819475
-0.00013089662012665053
-0.0001226294651712832
-0.00011160659189746003
-0.00010058371862363688
-9.78280003051811e-05
-9.507228198672531e-05
-8.956084534981374e-05
-7.57822537575348e-05
-6.200366216525588e-05
-5.3736507209888505e-05
-4.8225070572976926e-05
-4.2713633936065354e-05
-2.342360570687485e-05
-4.133577477684346e-06
9.64501411459459e-06
2.066788738841773e-05
3.444647898069667e-05
5.649222552834297e-05
8.68051270313566e-05
0.00011160659189745871
0.00012814090180819342
0.00014191949340047234
0.00016120952162966288
0.00018049954985885336
0.00019427814145113231
0.0001970338597695881
0.00019427814145113231
0.00019427814145113231
0.00019152242313267648
0.00018876670481422076
0.00017498811322194178
0.00015294236667429551
0.00013365233844510492
0.00012262946517128183
0.00011160659189745871
9.23165636682682e-05
6.200366216525454e-05
3.9957915617608246e-05
2.6179324025329308e-05
1.5156450751506162e-05
-4.133577477684346e-06
-2.6179324025330647e-05
-4.5469352254521147e-05
-5.6492225528344285e-05
-5.9247943846800084e-05
-6.751509880216745e-05
-8.404940871290214e-05
-9.78280003051811e-05
-0.00010058371862363688
-0.00010058371862363688
-0.00010058371862363688
-0.00010609515526054846
-0.0001171180285343716
-0.0001226294651712832
-0.00011436231021591582
-0.0001198737468528274
-0.0001198737468528274
-0.0001171180285343716
-0.00010885087357900426
-9.78280003051811e-05
-9.78280003051811e-05
-0.00010058371862363688
-9.78280003051811e-05
-8.680512703135793e-05
-6.751509880216745e-05
-5.3736507209888505e-05
-4.8225070572976926e-05
-4.5469352254521147e-05
-3.720219729915378e-05
-2.6179324025330647e-05
-2.8935042343786426e-05
-4.2713633936065354e-05
-5.3736507209888505e-05
-5.9247943846800084e-05
-6.751509880216745e-05
-8.129369039444639e-05
-9.507228198672531e-05
-0.00010885087357900426
-0.00011436231021591582
-0.00010609515526054846
-0.00010333943694209268
-0.00010609515526054846
-0.00011160659189746003
-0.00011436231021591582
-0.00010885087357900426
-0.00010609515526054846
-0.00010333943694209268
-0.00011160659189746003
-0.00011436231021591582
-0.00010609515526054846
-7.302653543907902e-05
-4.133577477684346e-06
0.00015018664835583973
0.0004395370717936973
0.0008115590447852286
0.0011394895246814672
0.0013434126802471958
0.0012690082856488892
0.0008280933546959632
0.00020805673304341124
-0.00023561391622797047
-0.0003348197756923787
-0.00027143825436789566
-0.00022734676127260308
-0.00020254529640650095
-0.00018325526817731047
-0.00017223239490348733
-0.00017498811322194308
-0.00018049954985885472
-0.0001777438315403989
-0.00016672095826657574
-0.0001584538033112084
-0.00015569808499275262
-0.0001584538033112084
-0.00015569808499275262
-0.000150186648355841
-0.0001364080567635621
-0.0001336523384451063
-0.0001364080567635621
-0.00012538518348973897
-0.00011160659189746003
-0.00010885087357900426
-0.00011160659189746003
-0.00010885087357900426
-9.507228198672531e-05
-7.85379720759906e-05
-6.751509880216745e-05
-6.200366216525588e-05
-6.200366216525588e-05
-5.098078889143272e-05
-2.8935042343786426e-05
-9.64501411459592e-06
1.3778591592272275e-06
1.5156450751506162e-05
3.720219729915245e-05
6.475938048371032e-05
8.956084534981241e-05
0.00010885087357900291
0.0001253851834897376
0.00013640805676356078
0.0001556980849927513
0.000172232394903486
0.00017774383154039756
0.000172232394903486
0.00016396523994811866
0.00016396523994811866
0.00016120952162966288
0.00015018664835583973
0.00013089662012664922
0.00010885087357900291
9.23165636682682e-05
7.853797207598924e-05
6.200366216525454e-05
3.444647898069667e-05
9.64501411459459e-06
-9.64501411459592e-06
-1.7912169069963278e-05
-2.8935042343786426e-05
-5.098078889143272e-05
-7.57822537575348e-05
-8.956084534981374e-05
-9.78280003051811e-05
-0.00010058371862363688
-0.00010885087357900426
-0.00012538518348973897
-0.00013089662012665053
-0.00013089662012665053
-0.00012538518348973897
-0.0001336523384451063
-0.00014467521171892948
-0.000150186648355841
-0.000150186648355841
-0.00014191949340047367
-0.00014191949340047367
-0.000150186648355841
-0.000150186648355841
-0.00014467521171892948
-0.0001364080567635621
-0.00012814090180819475
-0.00013089662012665053
-0.00013089662012665053
-0.00013089662012665053
-0.00011160659189746003
-8.956084534981374e-05
-7.302653543907902e-05
-7.302653543907902e-05
-6.475938048371164e-05
-5.6492225528344285e-05
-6.475938048371164e-05
-8.129369039444639e-05
-9.231656366826955e-05
-9.78280003051811e-05
-0.00010609515526054846
-0.0001171180285343716
-0.00013089662012665053
-0.00014467521171892948
-0.00014743093003738526
-0.0001391637750820179
-0.00014467521171892948
-0.000150186648355841
-0.00015569808499275262
-0.00014743093003738526
-0.0001391637750820179
-0.0001364080567635621
-0.00014191949340047367
-0.000150186648355841
-0.00015294236667429682
-0.0001391637750820179
-0.00010333943694209268
-2.342360570687485e-05
0.00015845380331120705
0.000469849973296711
0.0008363605096513305
0.0011477566796368347
0.001321366933699549
0.0012001153276874944
0.000717864621957732
0.00010885087357900291
-0.0002824611276417188
-0.0003513540856031135
-0.0002852168459601746
-0.0002521482261387052
-0.00023561391622797047
-0.0002190796063172357
-0.0002108124513618684
-0.00021632388799877996
-0.00021632388799877996
-0.0002080567330434125
-0.0001997895780880452
-0.00019427814145113364
-0.00019427814145113364
-0.00019703385976958942
-0.00018876670481422206
-0.0001777438315403989
-0.00017498811322194308
-0.00018049954985885472
-0.00018325526817731047
-0.0001777438315403989
-0.00016396523994811996
-0.0001584538033112084
-0.00015569808499275262
-0.00015294236667429682
-0.000150186648355841
-0.0001336523384451063
-0.0001198737468528274
-0.0001171180285343716
-0.00011160659189746003
-0.00010333943694209268
-8.680512703135793e-05
-5.3736507209888505e-05
-4.2713633936065354e-05
-2.6179324025330647e-05
4.133577477683014e-06
3.444647898069667e-05
5.649222552834297e-05
7.02708171206219e-05
8.129369039444505e-05
9.782800030517979e-05
0.00011987374685282605
0.00013089662012664922
0.00013365233844510492
0.00012814090180819342
0.00012262946517128183
0.0001253851834897376
0.0001253851834897376
0.00010885087357900291
8.956084534981241e-05
7.02708171206219e-05
5.9247943846798756e-05
4.546935225451981e-05
2.6179324025329308e-05
1.3778591592272275e-06
-1.7912169069963278e-05
-3.169076066224221e-05
-3.995791561760957e-05
-5.3736507209888505e-05
-7.57822537575348e-05
-9.78280003051811e-05
-0.00010609515526054846
-0.00010333943694209268
-0.00010885087357900426
-0.0001226294651712832
-0.0001336523384451063
-0.0001364080567635621
-0.0001336523384451063
-0.0001336523384451063
-0.00014467521171892948
-0.00015294236667429682
-0.00015294236667429682
-0.000150186648355841
-0.000150186648355841
-0.0001584538033112084
-0.00016672095826657574
-0.00016396523994811996
-0.00015294236667429682
-0.00014467521171892948
-0.00014467521171892948
-0.00014743093003738526
-0.00014743093003738526
-0.0001364080567635621
-0.00012814090180819475
-0.00011436231021591582
-0.00010609515526054846
-9.78280003051811e-05
-8.404940871290214e-05
-7.302653543907902e-05
-7.027081712062322e-05
-7.85379720759906e-05
-9.231656366826955e-05
-9.78280003051811e-05
-9.507228198672531e-05
-0.00010058371862363688
-0.0001198737468528274
-0.0001336523384451063
-0.00014191949340047367
-0.0001364080567635621
-0.0001364080567635621
-0.00014191949340047367
-0.00014191949340047367
-0.00013089662012665053
-0.00012814090180819475
-0.00013089662012665053
-0.0001391637750820179
-0.0001391637750820179
-0.0001364080567635621
-0.00013089662012665053
-0.0001171180285343716
-7.85379720759906e-05
4.271363393606403e-05
0.0002879725642786291
0.0006241701991302349
0.0009300549324788276
0.0011450009613183788
0.0011587795529106576
0.0008528948195620654
0.0003072625925078196
-0.00016947667658503157
-0.000370644113832304
-0.0003375754940108345
-0.00027419397268635144
-0.00023010247959105888
-0.0002190796063172357
-0.0002190796063172357
-0.0002190796063172357
-0.00021632388799877996
-0.00020530101472495681
-0.00019703385976958942
-0.0001997895780880452
-0.00020254529640650095
-0.0001997895780880452
-0.00018325526817731047
-0.00017223239490348733
-0.00017223239490348733
-0.00018049954985885472
-0.00018325526817731047
-0.00017223239490348733
-0.0001612095216296642
-0.00015569808499275262
-0.00015569808499275262
-0.00015569808499275262
-0.00014743093003738526
-0.0001336523384451063
-0.0001198737468528274
-0.00011436231021591582
-0.00010885087357900426
-9.78280003051811e-05
-7.85379720759906e-05
-6.200366216525588e-05
-5.6492225528344285e-05
-4.8225070572976926e-05
-3.169076066224221e-05
-4.133577477684346e-06
2.066788738841773e-05
3.9957915617608246e-05
5.373650720988717e-05
7.02708171206219e-05
9.507228198672396e-05
0.00011436231021591448
0.00012262946517128183
0.0001253851834897376
0.00012262946517128183
0.00013089662012664922
0.0001253851834897376
0.00010609515526054714
8.956084534981241e-05
7.853797207598924e-05
7.02708171206219e-05
5.373650720988717e-05
2.6179324025329308e-05
1.3778591592272275e-06
-1.5156450751507488e-05
-2.6179324025330647e-05
-3.720219729915378e-05
-5.9247943846800084e-05
-7.85379720759906e-05
-9.507228198672531e-05
-0.00010058371862363688
-0.00010885087357900426
-0.0001226294651712832
-0.0001364080567635621
-0.00014191949340047367
-0.0001391637750820179
-0.0001391637750820179
-0.00014191949340047367
-0.00015294236667429682
-0.0001612095216296642
-0.0001612095216296642
-0.00015294236667429682
-0.00015569808499275262
-0.00016947667658503157
-0.00017498811322194308
-0.00017223239490348733
-0.00015569808499275262
-0.000150186648355841
-0.00015294236667429682
-0.00015294236667429682
-0.00014743093003738526
-0.0001391637750820179
-0.0001336523384451063
-0.00012814090180819475
-0.00011436231021591582
-9.78280003051811e-05
-8.680512703135793e-05
-8.129369039444639e-05
-8.404940871290214e-05
-8.956084534981374e-05
-0.00010333943694209268
-0.00010885087357900426
-0.00010885087357900426
-0.00011436231021591582
-0.0001364080567635621
-0.00015569808499275262
-0.00015569808499275262
-0.00015569808499275262
-0.0001612095216296642
-0.00017223239490348733
-0.0001777438315403989
-0.0001777438315403989
-0.00016947667658503157
-0.00016672095826657574
-0.00017223239490348733
-0.00018049954985885472
-0.00017498811322194308
-0.00017223239490348733
-0.00016672095826657574
-0.0001336523384451063
-5.6492225528344285e-05
0.00010885087357900291
0.00037615555046921414
0.0006544831006332488
0.0008776962844281674
0.0009961921721217662
0.0008859634393835348
0.0004863842832074457
4.133577477683014e-06
-0.00031828546578164407
-0.000370644113832304
-0.0002989954375524536
-0.00024939250782024937
-0.00023285819790951464
-0.00023285819790951464
-0.00023285819790951464
-0.00022459104295414727
-0.00021356816968032413
-0.0002080567330434125
-0.00021356816968032413
-0.00021356816968032413
-0.00020530101472495681
-0.00019427814145113364
-0.00018876670481422206
-0.00019427814145113364
-0.00019427814145113364
-0.00018601098649576628
-0.00018049954985885472
-0.00017498811322194308
-0.00017223239490348733
-0.00017223239490348733
-0.00016947667658503157
-0.00015569808499275262
-0.00014467521171892948
-0.00014191949340047367
-0.00014191949340047367
-0.0001391637750820179
-0.00012538518348973897
-0.00010885087357900426
-9.78280003051811e-05
-8.956084534981374e-05
-8.129369039444639e-05
-6.200366216525588e-05
-3.720219729915378e-05
-1.7912169069963278e-05
-4.133577477684346e-06
9.64501411459459e-06
3.444647898069667e-05
5.9247943846798756e-05
7.853797207598924e-05
8.129369039444505e-05
8.404940871290084e-05
9.23165636682682e-05
0.00010058371862363556
0.00010333943694209132
9.23165636682682e-05
7.853797207598924e-05
6.751509880216611e-05
5.649222552834297e-05
4.82250705729756e-05
2.6179324025329308e-05
1.3778591592272275e-06
-2.066788738841907e-05
-3.4446478980697995e-05
-4.5469352254521147e-05
-8.956084534981374e-05
-0.00011160659189746003
-0.0001226294651712832
-0.00013089662012665053
-0.00014191949340047367
-0.00015569808499275262
-0.00016672095826657574
-0.00017498811322194308
-0.00017223239490348733
-0.00017498811322194308
-0.00018049954985885472
-0.00019152242313267784
-0.00019427814145113364
-0.00019152242313267784
-0.00019152242313267784
-0.0001997895780880452
-0.0002080567330434125
-0.00020254529640650095
-0.00019152242313267784
-0.00018049954985885472
-0.00018325526817731047
-0.00018876670481422206
-0.00018601098649576628
-0.00017223239490348733
-0.00016672095826657574
-0.0001584538033112084
-0.00015569808499275262
-0.00014467521171892948
-0.00012814090180819475
-0.0001171180285343716
-0.0001171180285343716
-0.00012538518348973897
-0.00012814090180819475
-0.0001364080567635621
-0.0001364080567635621
-0.0001364080567635621
-0.00015294236667429682
-0.0001777438315403989
-0.00018876670481422206
-0.00018601098649576628
-0.00018601098649576628
-0.00019427814145113364
-0.00020254529640650095
-0.00020254529640650095
-0.00019427814145113364
-0.00018601098649576628
-0.00018876670481422206
-0.00019703385976958942
-0.0001997895780880452
-0.00019427814145113364
-0.00019152242313267784
-0.00019427814145113364
-0.00018325526817731047
-0.00013089662012665053
-1.7912169069963278e-05
0.00019427814145113231
0.00048362856488898997
0.0007454218051422897
0.0009328106507972832
0.0009521006790264736
0.000687551720454718
0.000210812451361867
-0.00021356816968032413
-0.00040095701533531767
-0.0003651326771953924
-0.00026592681773098404
-0.00025765966277561676
-0.0002549039444571609
-0.0002549039444571609
-0.00024388107118333775
-0.00023561391622797047
-0.00023561391622797047
-0.00024112535286488197
-0.00023836963454642628
-0.00023010247959105888
-0.00021632388799877996
-0.00021356816968032413
-0.0002190796063172357
-0.00021356816968032413
-0.0002108124513618684
-0.0001997895780880452
-0.00019427814145113364
-0.00019703385976958942
-0.00019703385976958942
-0.00018876670481422206
-0.00017498811322194308
-0.00016672095826657574
-0.00016396523994811996
-0.0001584538033112084
-0.000150186648355841
-0.0001336523384451063
-0.0001198737468528274
-0.0001171180285343716
-0.00010885087357900426
-8.956084534981374e-05
-6.200366216525588e-05
-3.720219729915378e-05
-2.6179324025330647e-05
-1.5156450751507488e-05
4.133577477683014e-06
2.8935042343785094e-05
5.373650720988717e-05
6.751509880216611e-05
7.30265354390777e-05
7.853797207598924e-05
8.68051270313566e-05
9.23165636682682e-05
8.68051270313566e-05
7.578225375753347e-05
6.475938048371032e-05
5.649222552834297e-05
5.098078889143139e-05
3.720219729915245e-05
1.5156450751506162e-05
-9.64501411459592e-06
-2.8935042343786426e-05
-3.995791561760957e-05
-5.6492225528344285e-05
-7.85379720759906e-05
-9.78280003051811e-05
-0.00011160659189746003
-0.0001198737468528274
-0.00012538518348973897
-0.0001364080567635621
-0.00015294236667429682
-0.0001584538033112084
-0.0001584538033112084
-0.00015569808499275262
-0.00016396523994811996
-0.00017498811322194308
-0.0001777438315403989
-0.00017498811322194308
-0.00017498811322194308
-0.00018325526817731047
-0.00018601098649576628
-0.00017498811322194308
-0.00016396523994811996
-0.0001612095216296642
-0.00016672095826657574
-0.00016672095826657574
-0.0001584538033112084
-0.00014743093003738526
-0.00014467521171892948
-0.0001391637750820179
-0.00012814090180819475
-0.00010885087357900426
-9.507228198672531e-05
-8.956084534981374e-05
-8.956084534981374e-05
-9.507228198672531e-05
-0.00010609515526054846
-0.00010609515526054846
-0.00010333943694209268
-0.0001171180285343716
-0.0001364080567635621
-0.000150186648355841
-0.00015294236667429682
-0.000150186648355841
-0.00015569808499275262
-0.00016672095826657574
-0.00016947667658503157
-0.0001612095216296642
-0.00015569808499275262
-0.00015294236667429682
-0.0001584538033112084
-0.0001612095216296642
-0.0001584538033112084
-0.000150186648355841
-0.000150186648355841
-0.00014467521171892948
-0.00010885087357900426
-6.889295796140132e-06
0.0001970338597695881
0.0005111857480735478
0.0008280933546959632
0.0010816194399938957
0.0011863367360952157
0.0009934364538033101
0.0004974071564812689
-3.4446478980697995e-05
-0.0003293083390554673
-0.0003348197756923787
-0.0002604153810940725
-0.0002190796063172357
-0.00020530101472495681
-0.00020254529640650095
-0.00019703385976958942
-0.00018876670481422206
-0.00018049954985885472
-0.00017498811322194308
-0.00017498811322194308
-0.0001777438315403989
-0.00016947667658503157
-0.00015569808499275262
-0.00014743093003738526
-0.00015294236667429682
-0.000150186648355841
-0.0001391637750820179
-0.00013089662012665053
-0.00012538518348973897
-0.00012814090180819475
-0.0001226294651712832
-0.00010609515526054846
-9.231656366826955e-05
-8.404940871290214e-05
-8.404940871290214e-05
-7.85379720759906e-05
-5.9247943846800084e-05
-3.995791561760957e-05
-2.6179324025330647e-05
-2.342360570687485e-05
-1.240073243305171e-05
1.2400732433050376e-05
3.9957915617608246e-05
5.9247943846798756e-05
7.853797207598924e-05
9.507228198672396e-05
0.00011987374685282605
0.00014467521171892812
0.00016396523994811866
0.000172232394903486
0.00018049954985885336
0.0001832552681773092
0.00019152242313267648
0.00019427814145113231
0.00018601098649576498
0.0001694766765850302
0.0001556980849927513
0.00015018664835583973
0.00013916377508201656
0.00011987374685282605
9.507228198672396e-05
7.30265354390777e-05
6.200366216525454e-05
4.82250705729756e-05
2.8935042343785094e-05
4.133577477683014e-06
-1.5156450751507488e-05
-2.6179324025330647e-05
-3.4446478980697995e-05
-4.5469352254521147e-05
-6.475938048371164e-05
-7.57822537575348e-05
-8.129369039444639e-05
-7.57822537575348e-05
-8.129369039444639e-05
-9.231656366826955e-05
-0.00010058371862363688
-9.78280003051811e-05
-9.507228198672531e-05
-9.507228198672531e-05
-0.00010058371862363688
-0.00011160659189746003
-0.00011160659189746003
-9.78280003051811e-05
-9.231656366826955e-05
-9.231656366826955e-05
-9.231656366826955e-05
-8.680512703135793e-05
-7.85379720759906e-05
-6.475938048371164e-05
-5.3736507209888505e-05
-3.720219729915378e-05
-2.342360570687485e-05
-6.889295796140132e-06
-4.133577477684346e-06
-6.889295796140132e-06
-1.5156450751507488e-05
-2.066788738841907e-05
-2.066788738841907e-05
-2.6179324025330647e-05
-4.2713633936065354e-05
-6.475938048371164e-05
-7.302653543907902e-05
-7.027081712062322e-05
-7.027081712062322e-05
-7.85379720759906e-05
-8.680512703135793e-05
-8.680512703135793e-05
-7.57822537575348e-05
-7.027081712062322e-05
-7.302653543907902e-05
-8.129369039444639e-05
-8.129369039444639e-05
-7.302653543907902e-05
-6.751509880216745e-05
-6.475938048371164e-05
-5.098078889143272e-05
2.6179324025329308e-05
0.00021632388799877858
0.0005387429312581057
0.0009052534676127252
0.0012083824826428621
0.0013875041733424878
0.0012634968490119777
0.0007840018616006707
0.00016672095826657444
-0.00024112535286488197
-0.0003100183108262768
-0.00022734676127260308
-0.00016947667658503157
-0.00014467521171892948
-0.0001391637750820179
-0.0001364080567635621
-0.00013089662012665053
-0.0001198737468528274
-0.00011160659189746003
-0.00011436231021591582
-0.0001171180285343716
-0.00011436231021591582
-0.00010058371862363688
-8.956084534981374e-05
-8.956084534981374e-05
-9.231656366826955e-05
-9.507228198672531e-05
-8.404940871290214e-05
-7.57822537575348e-05
-7.302653543907902e-05
-7.027081712062322e-05
-6.200366216525588e-05
-5.098078889143272e-05
-3.720219729915378e-05
-2.6179324025330647e-05
-2.342360570687485e-05
-1.7912169069963278e-05
-6.889295796140132e-06
3.169076066224089e-05
3.720219729915245e-05
4.82250705729756e-05
6.751509880216611e-05
9.23165636682682e-05
0.00011987374685282605
0.00013365233844510492
0.00014743093003738393
0.0001694766765850302
0.00019978957808804387
0.0002190796063172344
0.00022459104295414594
0.00022734676127260172
0.00023010247959105753
0.00024112535286488067
0.0002493925078202481
0.0002383696345464249
0.0002135681696803228
0.00020254529640649968
0.00019427814145113231
0.00018601098649576498
0.0001694766765850302
0.00014467521171892812
0.00011711802853437029
0.00010058371862363556
8.956084534981241e-05
7.30265354390777e-05
4.82250705729756e-05
2.8935042343785094e-05
1.5156450751506162e-05
6.8892957961388014e-06
-1.377859159228559e-06
-1.7912169069963278e-05
-3.4446478980697995e-05
-3.995791561760957e-05
-3.995791561760957e-05
-4.2713633936065354e-05
-4.8225070572976926e-05
-5.9247943846800084e-05
-6.200366216525588e-05
-5.9247943846800084e-05
-5.6492225528344285e-05
-6.200366216525588e-05
-7.302653543907902e-05
-7.57822537575348e-05
-7.027081712062322e-05
-6.200366216525588e-05
-5.9247943846800084e-05
-5.9247943846800084e-05
-5.6492225528344285e-05
-5.098078889143272e-05
-3.995791561760957e-05
-3.4446478980697995e-05
-3.169076066224221e-05
-1.7912169069963278e-05
4.133577477683014e-06
2.066788738841773e-05
2.3423605706873515e-05
2.066788738841773e-05
1.5156450751506162e-05
6.8892957961388014e-06
6.8892957961388014e-06
4.133577477683014e-06
-9.64501411459592e-06
-3.4446478980697995e-05
-4.8225070572976926e-05
-4.8225070572976926e-05
-5.098078889143272e-05
-5.9247943846800084e-05
-6.475938048371164e-05
-5.9247943846800084e-05
-5.098078889143272e-05
-5.3736507209888505e-05
-5.9247943846800084e-05
-6.200366216525588e-05
-5.6492225528344285e-05
-5.098078889143272e-05
-5.098078889143272e-05
-4.2713633936065354e-05
1.3778591592272275e-06
0.00012262946517128183
0.000365132677195391
0.0007151089036392759
0.0010540622568093376
0.001318611215381093
0.0013930156099793995
0.0011312223697260999
0.000560788677805752
-1.377859159228559e-06
-0.00026592681773098404
-0.00023836963454642628
-0.00016947667658503157
-0.0001364080567635621
-0.00012814090180819475
-0.00012538518348973897
-0.0001198737468528274
-0.0001171180285343716
-0.00010885087357900426
-0.00010333943694209268
-0.00010609515526054846
-0.00010885087357900426
-0.00010333943694209268
-8.680512703135793e-05
-8.129369039444639e-05
-8.680512703135793e-05
-9.231656366826955e-05
-8.404940871290214e-05
-7.027081712062322e-05
-6.200366216525588e-05
-6.200366216525588e-05
-6.475938048371164e-05
-5.9247943846800084e-05
-3.995791561760957e-05
-2.6179324025330647e-05
-2.342360570687485e-05
-2.342360570687485e-05
-1.5156450751507488e-05
4.133577477683014e-06
2.066788738841773e-05
3.169076066224089e-05
3.9957915617608246e-05
5.373650720988717e-05
7.578225375753347e-05
0.00010333943694209132
0.00012262946517128183
0.00013916377508201656
0.00015845380331120705
0.00018049954985885336
0.00020530101472495543
0.0002218353246356902
0.00022734676127260172
0.00024112535286488067
0.0002493925078202481
0.0002493925078202481
0.0002383696345464249
0.0002218353246356902
0.00020805673304341124
0.00019978957808804387
0.00018601098649576498
0.00016120952162966288
0.00013089662012664922
0.00010885087357900291
9.782800030517979e-05
8.404940871290084e-05
6.200366216525454e-05
3.720219729915245e-05
1.7912169069961946e-05
6.8892957961388014e-06
-1.377859159228559e-06
-1.7912169069963278e-05
-3.720219729915378e-05
-4.5469352254521147e-05
-5.098078889143272e-05
-4.8225070572976926e-05
-5.3736507209888505e-05
-6.751509880216745e-05
-7.85379720759906e-05
-7.85379720759906e-05
-7.302653543907902e-05
-7.302653543907902e-05
-8.404940871290214e-05
-8.956084534981374e-05
-8.680512703135793e-05
-8.129369039444639e-05
-7.57822537575348e-05
-7.57822537575348e-05
-7.85379720759906e-05
-7.302653543907902e-05
-5.9247943846800084e-05
-5.3736507209888505e-05
-5.6492225528344285e-05
-5.098078889143272e-05
-3.720219729915378e-05
-1.5156450751507488e-05
4.133577477683014e-06
6.8892957961388014e-06
1.3778591592272275e-06
-1.377859159228559e-06
1.3778591592272275e-06
1.3778591592272275e-06
-9.64501411459592e-06
-2.8935042343786426e-05
-5.6492225528344285e-05
-6.475938048371164e-05
-5.9247943846800084e-05
-5.9247943846800084e-05
-6.751509880216745e-05
-8.129369039444639e-05
-8.404940871290214e-05
-7.57822537575348e-05
-6.751509880216745e-05
-7.302653543907902e-05
-8.129369039444639e-05
-7.85379720759906e-05
-7.027081712062322e-05
-6.751509880216745e-05
-7.027081712062322e-05
-3.4446478980697995e-05
7.02708171206219e-05
0.0002852168459601733
0.0006186587624933234
0.000971390707255664
0.001257985412375066
0.0013930156099793995
0.0012111382009613175
0.000679284565499351
7.853797207598924e-05
-0.00026592681773098404
-0.0002852168459601746
-0.00020254529640650095
-0.0001612095216296642
-0.00015294236667429682
-0.00014467521171892948
-0.0001336523384451063
-0.0001226294651712832
-0.0001171180285343716
-0.0001171180285343716
-0.0001198737468528274
-0.0001171180285343716
-0.00010885087357900426
-0.00010058371862363688
-9.78280003051811e-05
-0.00010058371862363688
-0.00010058371862363688
-8.956084534981374e-05
-7.57822537575348e-05
-7.57822537575348e-05
-8.129369039444639e-05
-7.85379720759906e-05
-6.475938048371164e-05
-5.098078889143272e-05
-4.2713633936065354e-05
-3.995791561760957e-05
-3.720219729915378e-05
-2.342360570687485e-05
-6.889295796140132e-06
9.64501411459459e-06
9.64501411459459e-06
2.066788738841773e-05
3.9957915617608246e-05
6.475938048371032e-05
8.68051270313566e-05
0.00010058371862363556
0.00011711802853437029
0.00013916377508201656
0.00016672095826657444
0.00018876670481422076
0.00019978957808804387
0.00020254529640649968
0.000210812451361867
0.0002218353246356902
0.00023010247959105753
0.00022459104295414594
0.000210812451361867
0.0001970338597695881
0.00019152242313267648
0.00018601098649576498
0.0001694766765850302
0.00014467521171892812
0.00011987374685282605
0.00010333943694209132
7.30265354390777e-05
4.82250705729756e-05
2.8935042343785094e-05
1.5156450751506162e-05
6.8892957961388014e-06
-6.889295796140132e-06
-2.342360570687485e-05
-3.995791561760957e-05
-4.8225070572976926e-05
-5.098078889143272e-05
-5.3736507209888505e-05
-5.9247943846800084e-05
-7.027081712062322e-05
-7.57822537575348e-05
-7.302653543907902e-05
-7.027081712062322e-05
-7.57822537575348e-05
-8.404940871290214e-05
-8.680512703135793e-05
-8.404940871290214e-05
-7.57822537575348e-05
-7.302653543907902e-05
-7.85379720759906e-05
-8.129369039444639e-05
-7.027081712062322e-05
-5.3736507209888505e-05
-5.098078889143272e-05
-5.6492225528344285e-05
-5.3736507209888505e-05
-3.4446478980697995e-05
-9.64501411459592e-06
4.133577477683014e-06
1.3778591592272275e-06
-1.377859159228559e-06
4.133577477683014e-06
6.8892957961388014e-06
-1.377859159228559e-06
-1.240073243305171e-05
-2.6179324025330647e-05
-3.995791561760957e-05
-5.098078889143272e-05
-5.3736507209888505e-05
-6.200366216525588e-05
-7.027081712062322e-05
-7.302653543907902e-05
-7.302653543907902e-05
-6.475938048371164e-05
-7.027081712062322e-05
-8.129369039444639e-05
-8.404940871290214e-05
-7.57822537575348e-05
-6.751509880216745e-05
-6.751509880216745e-05
-8.129369039444639e-05
-8.404940871290214e-05
-5.098078889143272e-05
2.3423605706873515e-05
0.00016120952162966288
0.0003982012970168605
0.0006903074387731741
0.0009521006790264736
0.0011422452429999228
0.0011146880598153653
0.0007729789883268476
0.00025214822613870384
-0.00015294236667429682
-0.0002190796063172357
-0.00017223239490348733
-0.0001584538033112084
-0.00014743093003738526
-0.0001336523384451063
-0.0001198737468528274
-0.0001226294651712832
-0.00012814090180819475
-0.00012814090180819475
-0.0001226294651712832
-0.00011160659189746003
-0.00010609515526054846
-0.00010885087357900426
-0.00011160659189746003
-0.00010609515526054846
-8.956084534981374e-05
-8.680512703135793e-05
-9.231656366826955e-05
-9.231656366826955e-05
-8.680512703135793e-05
-7.302653543907902e-05
-6.751509880216745e-05
-6.475938048371164e-05
-6.200366216525588e-05
-5.3736507209888505e-05
-3.995791561760957e-05
-2.6179324025330647e-05
-2.066788738841907e-05
-1.7912169069963278e-05
-6.889295796140132e-06
1.2400732433050376e-05
3.720219729915245e-05
5.098078889143139e-05
6.475938048371032e-05
8.404940871290084e-05
0.00011160659189745871
0.00013916377508201656
0.0001556980849927513
0.00016396523994811866
0.00017498811322194178
0.00018876670481422076
0.00020254529640649968
0.00020530101472495543
0.0001970338597695881
0.00019152242313267648
0.00018601098649576498
0.00018601098649576498
0.00017498811322194178
0.0001556980849927513
0.00013365233844510492
0.00011436231021591448
9.782800030517979e-05
8.404940871290084e-05
6.200366216525454e-05
3.444647898069667e-05
1.5156450751506162e-05
6.8892957961388014e-06
-1.377859159228559e-06
-2.066788738841907e-05
-4.2713633936065354e-05
-5.3736507209888505e-05
-5.6492225528344285e-05
-5.6492225528344285e-05
-6.475938048371164e-05
-7.302653543907902e-05
-8.404940871290214e-05
-7.57822537575348e-05
-7.302653543907902e-05
-8.680512703135793e-05
-9.231656366826955e-05
-9.231656366826955e-05
-8.680512703135793e-05
-8.680512703135793e-05
-8.956084534981374e-05
-8.956084534981374e-05
-8.404940871290214e-05
-7.302653543907902e-05
-6.475938048371164e-05
-6.200366216525588e-05
-6.751509880216745e-05
-6.475938048371164e-05
-4.5469352254521147e-05
-2.342360570687485e-05
-1.240073243305171e-05
-1.7912169069963278e-05
-2.342360570687485e-05
-1.5156450751507488e-05
-6.889295796140132e-06
-1.7912169069963278e-05
-3.4446478980697995e-05
-4.2713633936065354e-05
-4.8225070572976926e-05
-5.6492225528344285e-05
-7.027081712062322e-05
-8.404940871290214e-05
-9.231656366826955e-05
-8.956084534981374e-05
-8.129369039444639e-05
-8.129369039444639e-05
-8.956084534981374e-05
-9.507228198672531e-05
-9.507228198672531e-05
-9.231656366826955e-05
-8.956084534981374e-05
-9.231656366826955e-05
-9.78280003051811e-05
-0.00010058371862363688
-7.85379720759906e-05
-2.8935042343786426e-05
6.200366216525454e-05
0.0002383696345464249
0.0005222086213473709
0.0008032918898298613
0.0010099707637140451
0.0010650851300831607
0.0008391162279697863
0.0003733998321507585
-6.200366216525588e-05
-0.00027970540932326305
-0.00027143825436789566
-0.00021356816968032413
-0.00018601098649576628
-0.00016947667658503157
-0.00015294236667429682
-0.00014467521171892948
-0.00014743093003738526
-0.00015569808499275262
-0.000150186648355841
-0.0001364080567635621
-0.00012814090180819475
-0.0001391637750820179
-0.00013089662012665053
-0.0001226294651712832
-0.00011436231021591582
-0.00011160659189746003
-0.00011436231021591582
-0.00011436231021591582
-0.00010609515526054846
-9.78280003051811e-05
-9.507228198672531e-05
-9.78280003051811e-05
-9.507228198672531e-05
-7.85379720759906e-05
-6.751509880216745e-05
-6.475938048371164e-05
-5.6492225528344285e-05
-5.098078889143272e-05
-3.720219729915378e-05
-1.7912169069963278e-05
-4.133577477684346e-06
4.133577477683014e-06
2.066788738841773e-05
4.271363393606403e-05
6.751509880216611e-05
8.956084534981241e-05
9.782800030517979e-05
0.00010609515526054714
0.00012814090180819342
0.00015018664835583973
0.00016120952162966288
0.00015845380331120705
0.00015294236667429551
0.00015018664835583973
0.00015018664835583973
0.00014743093003738393
0.00013089662012664922
0.00010885087357900291
9.23165636682682e-05
7.853797207598924e-05
6.475938048371032e-05
4.546935225451981e-05
1.7912169069961946e-05
-1.377859159228559e-06
-1.5156450751507488e-05
-2.6179324025330647e-05
-3.995791561760957e-05
-6.475938048371164e-05
-8.404940871290214e-05
-8.956084534981374e-05
-8.956084534981374e-05
-9.231656366826955e-05
-0.00010609515526054846
-0.0001171180285343716
-0.0001226294651712832
-0.0001198737468528274
-0.0001171180285343716
-0.00012538518348973897
-0.0001364080567635621
-0.0001391637750820179
-0.0001336523384451063
-0.00013089662012665053
-0.0001364080567635621
-0.00014467521171892948
-0.00014467521171892948
-0.0001336523384451063
-0.00012538518348973897
-0.00012538518348973897
-0.0001226294651712832
-0.0001171180285343716
-0.00010885087357900426
-0.00010333943694209268
-9.507228198672531e-05
-8.404940871290214e-05
-7.302653543907902e-05
-6.200366216525588e-05
-6.200366216525588e-05
-6.751509880216745e-05
-7.85379720759906e-05
-8.956084534981374e-05
-8.956084534981374e-05
-9.231656366826955e-05
-0.00011160659189746003
-0.0001336523384451063
-0.00014191949340047367
-0.00014191949340047367
-0.0001364080567635621
-0.00014467521171892948
-0.0001584538033112084
-0.0001612095216296642
-0.00015294236667429682
-0.00014743093003738526
-0.00015294236667429682
-0.0001612095216296642
-0.0001612095216296642
-0.0001584538033112084
-0.00015569808499275262
-0.00015294236667429682
-0.0001364080567635621
-8.680512703135793e-05
3.720219729915245e-05
0.00027143825436789435
0.0005690558327611192
0.0008391162279697863
0.001037527946898603
0.0010430393835355147
0.0007481775234607456
0.00024663678950179223
-0.00018601098649576628
-0.0003651326771953924
-0.00032379690241855563
-0.0002631710994125282
-0.00023836963454642628
-0.00023561391622797047
-0.00023285819790951464
-0.00022734676127260308
-0.0002218353246356915
-0.0002190796063172357
-0.0002190796063172357
-0.0002218353246356915
-0.0002218353246356915
-0.0002108124513618684
-0.0001997895780880452
-0.0001997895780880452
-0.00020530101472495681
-0.00020530101472495681
-0.0001997895780880452
-0.00018876670481422206
-0.00018325526817731047
-0.00018876670481422206
-0.00019152242313267784
-0.00018325526817731047
-0.00015569808499275262
-0.0001584538033112084
-0.00015569808499275262
-0.00014743093003738526
-0.00012814090180819475
-0.0001171180285343716
-0.00011160659189746003
-0.00010609515526054846
-8.956084534981374e-05
-6.200366216525588e-05
-3.720219729915378e-05
-2.066788738841907e-05
-6.889295796140132e-06
1.2400732433050376e-05
3.9957915617608246e-05
5.9247943846798756e-05
7.02708171206219e-05
7.30265354390777e-05
7.853797207598924e-05
8.956084534981241e-05
9.507228198672396e-05
9.23165636682682e-05
7.853797207598924e-05
6.751509880216611e-05
5.9247943846798756e-05
5.373650720988717e-05
3.720219729915245e-05
1.2400732433050376e-05
-1.240073243305171e-05
-3.169076066224221e-05
-4.5469352254521147e-05
-6.200366216525588e-05
-8.680512703135793e-05
-0.00010885087357900426
-0.00012538518348973897
-0.0001364080567635621
-0.00014743093003738526
-0.0001612095216296642
-0.0001777438315403989
-0.00018876670481422206
-0.00019152242313267784
-0.00019152242313267784
-0.00019703385976958942
-0.0002108124513618684
-0.0002190796063172357
-0.0002190796063172357
-0.0002190796063172357
-0.00022459104295414727
-0.00023010247959105888
-0.00023561391622797047
-0.00023561391622797047
-0.00023010247959105888
-0.00023285819790951464
-0.00023561391622797047
-0.00023836963454642628
-0.00023285819790951464
-0.0002218353246356915
-0.0002108124513618684
-0.00021356816968032413
-0.00021632388799877996
-0.00021356816968032413
-0.00019152242313267784
-0.00016672095826657574
-0.00015569808499275262
-0.00015569808499275262
-0.00014743093003738526
-0.00014191949340047367
-0.00015569808499275262
-0.00017223239490348733
-0.0001777438315403989
-0.00018601098649576628
-0.00019703385976958942
-0.0002080567330434125
-0.00022459104295414727
-0.00023561391622797047
-0.00023561391622797047
-0.00023285819790951464
-0.00023285819790951464
-0.00024112535286488197
-0.00024112535286488197
-0.00023836963454642628
-0.00023285819790951464
-0.00023285819790951464
-0.00023836963454642628
-0.0002466367895017936
-0.00024939250782024937
-0.00023010247959105888
-0.00018049954985885472
-6.200366216525588e-05
0.0001694766765850302
0.0005194529030289152
0.0008721848477912556
0.0011339780880445555
0.001178069581139848
0.0008804520027466232
0.0002989954375524522
-0.00023836963454642628
-0.00047260569161516804
-0.00043678135347524285
-0.00037339983215075977
-0.0003458426489662019
-0.0003320640573739229
-0.0003155297474631883
-0.0003127740291447324
-0.0003155297474631883
-0.0003210411841000998
-0.0003155297474631883
-0.0003045068741893651
-0.00030175115587090934
-0.0003045068741893651
-0.00030726259250782084
-0.0002989954375524536
-0.00028797256427863044
-0.00027970540932326305
-0.0002824611276417188
-0.0002824611276417188
-0.00027419397268635144
-0.0002631710994125282
-0.00024939250782024937
-0.00024388107118333775
-0.00024112535286488197
-0.00023285819790951464
-0.00021356816968032413
-0.00019427814145113364
-0.00018325526817731047
-0.00017223239490348733
-0.0001612095216296642
-0.00014191949340047367
-0.0001198737468528274
-0.00010058371862363688
-8.956084534981374e-05
-3.995791561760957e-05
-1.240073243305171e-05
6.8892957961388014e-06
2.066788738841773e-05
2.8935042343785094e-05
4.546935225451981e-05
6.475938048371032e-05
7.02708171206219e-05
6.475938048371032e-05
5.649222552834297e-05
4.82250705729756e-05
4.546935225451981e-05
3.9957915617608246e-05
2.3423605706873515e-05
-4.133577477684346e-06
-2.6179324025330647e-05
-3.995791561760957e-05
-5.6492225528344285e-05
-7.85379720759906e-05
-0.00010333943694209268
-0.00012814090180819475
-0.0001391637750820179
-0.000150186648355841
-0.00016947667658503157
-0.00018876670481422206
-0.00020530101472495681
-0.00021632388799877996
-0.00021632388799877996
-0.00022459104295414727
-0.00023561391622797047
-0.00024388107118333775
-0.00024388107118333775
-0.00023561391622797047
-0.00023836963454642628
-0.0002466367895017936
-0.0002521482261387052
-0.0002521482261387052
-0.0002466367895017936
-0.0002466367895017936
-0.00024939250782024937
-0.00025765966277561676
-0.0002604153810940725
-0.0002521482261387052
-0.00024112535286488197
-0.00024112535286488197
-0.00024939250782024937
-0.00024939250782024937
