-0.00023561391622797047
-0.00023561391622797047
-0.0002466367895017936
-0.00025765966277561676
-0.0002521482261387052
-0.00023836963454642628
-0.00023285819790951464
-0.00023836963454642628
-0.00024939250782024937
-0.0002466367895017936
-0.00024112535286488197
-0.00023561391622797047
-0.00023285819790951464
-0.0002108124513618684
-8.956084534981374e-05
0.00020530101472495543
0.0006407045090409697
0.0010595736934462493
0.001332389806973372
0.0013130997787441814
0.0009245434958419158
0.0003430869306477448
-0.00014191949340047367
-0.0003458426489662019
-0.0003320640573739229
-0.00030726259250782084
-0.0002989954375524536
-0.00030175115587090934
-0.00030726259250782084
-0.0003100183108262768
-0.0003045068741893651
-0.0002962397192339978
-0.00028797256427863044
-0.0002852168459601746
-0.00028797256427863044
-0.0002852168459601746
-0.0002686825360494398
-0.0002604153810940725
-0.0002604153810940725
-0.0002631710994125282
-0.00025765966277561676
-0.0002466367895017936
-0.00023561391622797047
-0.00023285819790951464
-0.00024112535286488197
-0.00024112535286488197
-0.0002108124513618684
-0.00020530101472495681
-0.00020530101472495681
-0.00020254529640650095
-0.00018601098649576628
-0.00016672095826657574
-0.00015294236667429682
-0.00014743093003738526
-0.0001391637750820179
-0.0001171180285343716
-9.507228198672531e-05
-7.027081712062322e-05
-5.098078889143272e-05
-3.720219729915378e-05
-1.7912169069963278e-05
1.2400732433050376e-05
3.720219729915245e-05
4.82250705729756e-05
5.098078889143139e-05
6.200366216525454e-05
7.30265354390777e-05
8.68051270313566e-05
8.68051270313566e-05
7.853797207598924e-05
7.02708171206219e-05
7.30265354390777e-05
6.751509880216611e-05
4.546935225451981e-05
1.5156450751506162e-05
-9.64501411459592e-06
-2.342360570687485e-05
-3.720219729915378e-05
-5.9247943846800084e-05
-8.404940871290214e-05
-0.00011160659189746003
-0.00013089662012665053
-0.0001391637750820179
-0.00015294236667429682
-0.0001777438315403989
-0.0001997895780880452
-0.00020530101472495681
-0.00020530101472495681
-0.00020254529640650095
-0.00021356816968032413
-0.00022734676127260308
-0.00023010247959105888
-0.0002218353246356915
-0.00021632388799877996
-0.0002218353246356915
-0.00023561391622797047
-0.00024388107118333775
-0.00023836963454642628
-0.00022734676127260308
-0.00022459104295414727
-0.00023010247959105888
-0.00022734676127260308
-0.0002218353246356915
-0.0002108124513618684
-0.00020254529640650095
-0.00020254529640650095
-0.00020254529640650095
-0.00018325526817731047
-0.00015294236667429682
-0.0001364080567635621
-0.0001336523384451063
-0.00014191949340047367
-0.00013089662012665053
-0.0001336523384451063
-0.00014743093003738526
-0.00016672095826657574
-0.00018876670481422206
-0.00020530101472495681
-0.0002108124513618684
-0.0002218353246356915
-0.00023561391622797047
-0.00024112535286488197
-0.00023836963454642628
-0.00023010247959105888
-0.00023285819790951464
-0.00024112535286488197
-0.00024388107118333775
-0.00023836963454642628
-0.00023010247959105888
-0.00023285819790951464
-0.0002466367895017936
-0.0002521482261387052
-0.00023010247959105888
-0.00014467521171892948
6.751509880216611e-05
0.0004367813534752416
0.0008749405661097116
0.0012497182574196988
0.0013902598916609437
0.0011587795529106576
0.0006159030441748677
6.475938048371032e-05
-0.0002549039444571609
-0.0002962397192339978
-0.0002824611276417188
-0.00029072828259708617
-0.00030175115587090934
-0.00030726259250782084
-0.0002962397192339978
-0.00028797256427863044
-0.00028797256427863044
-0.00029348400091554195
-0.00029348400091554195
-0.0002824611276417188
-0.00027143825436789566
-0.0002686825360494398
-0.0002686825360494398
-0.0002686825360494398
-0.00025765966277561676
-0.00024388107118333775
-0.00023836963454642628
-0.00024388107118333775
-0.0002466367895017936
-0.00023561391622797047
-0.0002190796063172357
-0.00021356816968032413
-0.0002108124513618684
-0.00021356816968032413
-0.00020530101472495681
-0.00019427814145113364
-0.00018049954985885472
-0.00017498811322194308
-0.00017223239490348733
-0.0001612095216296642
-0.00014467521171892948
-0.0001171180285343716
-0.00010058371862363688
-7.85379720759906e-05
-5.3736507209888505e-05
-2.342360570687485e-05
-1.377859159228559e-06
1.2400732433050376e-05
2.3423605706873515e-05
4.546935225451981e-05
6.751509880216611e-05
7.853797207598924e-05
7.853797207598924e-05
7.578225375753347e-05
7.853797207598924e-05
8.956084534981241e-05
8.68051270313566e-05
7.02708171206219e-05
5.098078889143139e-05
3.720219729915245e-05
2.6179324025329308e-05
9.64501411459459e-06
-1.5156450751507488e-05
-4.5469352254521147e-05
-6.751509880216745e-05
-7.85379720759906e-05
-8.956084534981374e-05
-0.00010885087357900426
-0.0001336523384451063
-0.000150186648355841
-0.00015569808499275262
-0.0001584538033112084
-0.00016396523994811996
-0.00018049954985885472
-0.00019152242313267784
-0.00018876670481422206
-0.00018325526817731047
-0.00018876670481422206
-0.00020254529640650095
-0.0002108124513618684
-0.00020530101472495681
-0.00020254529640650095
-0.00020254529640650095
-0.0002108124513618684
-0.0002190796063172357
-0.00021356816968032413
-0.00019703385976958942
-0.00018601098649576628
-0.00018876670481422206
-0.00019703385976958942
-0.00019703385976958942
-0.00018325526817731047
-0.0001584538033112084
-0.00014191949340047367
-0.00013089662012665053
-0.0001226294651712832
-0.00011436231021591582
-0.00010885087357900426
-0.00011160659189746003
-0.00012538518348973897
-0.00014191949340047367
-0.000150186648355841
-0.00016396523994811996
-0.00018601098649576628
-0.00020530101472495681
-0.0002190796063172357
-0.00021632388799877996
-0.0002108124513618684
-0.00021632388799877996
-0.0002218353246356915
-0.0002190796063172357
-0.0002080567330434125
-0.00020254529640650095
-0.00020530101472495681
-0.00021356816968032413
-0.00021632388799877996
-0.00020254529640650095
-0.00018325526817731047
-0.0001226294651712832
8.404940871290084e-05
0.0004781171282520784
0.0009438335240711064
0.0013296340886549166
0.0014867100328068963
0.0012634968490119777
0.0007040860303654528
0.00011711802853437029
-0.00023010247959105888
-0.00028797256427863044
-0.0002631710994125282
-0.0002686825360494398
-0.0002686825360494398
-0.0002521482261387052
-0.0002521482261387052
-0.00025765966277561676
-0.00026592681773098404
-0.0002631710994125282
-0.00024939250782024937
-0.00024112535286488197
-0.0002466367895017936
-0.0002521482261387052
-0.0002466367895017936
-0.00023561391622797047
-0.00022459104295414727
-0.00022459104295414727
-0.00023010247959105888
-0.00022734676127260308
-0.00021356816968032413
-0.00020254529640650095
-0.00019703385976958942
-0.00020254529640650095
-0.00019703385976958942
-0.00018325526817731047
-0.00016947667658503157
-0.0001612095216296642
-0.0001612095216296642
-0.00015294236667429682
-0.0001364080567635621
-0.00011436231021591582
-9.78280003051811e-05
-8.680512703135793e-05
-7.302653543907902e-05
-5.6492225528344285e-05
-2.8935042343786426e-05
-1.377859159228559e-06
1.5156450751506162e-05
2.6179324025329308e-05
5.098078889143139e-05
8.404940871290084e-05
0.00010333943694209132
0.00010885087357900291
0.00010333943694209132
0.00010333943694209132
0.00012814090180819342
0.00013089662012664922
0.00013365233844510492
0.00013640805676356078
0.00014743093003738393
0.00016120952162966288
0.00016120952162966288
0.00013089662012664922
9.782800030517979e-05
7.578225375753347e-05
5.649222552834297e-05
3.169076066224089e-05
-4.133577477684346e-06
-4.2713633936065354e-05
-6.475938048371164e-05
-8.129369039444639e-05
-0.00010333943694209268
-0.0001226294651712832
-0.0001391637750820179
-0.00014467521171892948
-0.0001391637750820179
-0.0001391637750820179
-0.000150186648355841
-0.00016396523994811996
-0.00016672095826657574
-0.0001584538033112084
-0.000150186648355841
-0.00015569808499275262
-0.00016947667658503157
-0.00016947667658503157
-0.0001612095216296642
-0.00014743093003738526
-0.0001391637750820179
-8.404940871290214e-05
5.9247943846798756e-05
0.0003127740291447311
0.0007040860303654528
0.0011201994964522765
0.001401282764934767
0.0013902598916609437
0.0009272992141603715
0.00017774383154039756
-0.00032379690241855563
-0.0003568655222400251
-0.0002521482261387052
-0.0002080567330434125
-0.00019427814145113364
-0.00018325526817731047
-0.00018325526817731047
-0.00018876670481422206
-0.00018601098649576628
-0.0001777438315403989
-0.00017223239490348733
-0.00017498811322194308
-0.00017498811322194308
-0.00017223239490348733
-0.0001612095216296642
-0.000150186648355841
-0.00014467521171892948
-0.00014743093003738526
-0.000150186648355841
-0.0001391637750820179
-0.00012814090180819475
-0.0001226294651712832
-0.00012538518348973897
-0.00011436231021591582
-9.78280003051811e-05
-8.404940871290214e-05
-8.129369039444639e-05
-8.129369039444639e-05
-6.475938048371164e-05
-3.995791561760957e-05
-1.5156450751507488e-05
-4.133577477684346e-06
9.64501411459459e-06
2.8935042343785094e-05
5.649222552834297e-05
8.956084534981241e-05
0.00011160659189745871
0.00012262946517128183
0.00014191949340047234
0.000172232394903486
0.00020254529640649968
0.0002190796063172344
0.00022459104295414594
0.00022734676127260172
0.0002383696345464249
0.0002549039444571596
0.0002576596627756154
0.00024663678950179223
0.00023010247959105753
0.0002190796063172344
0.000210812451361867
0.00018601098649576498
0.00015018664835583973
0.00011436231021591448
8.956084534981241e-05
7.02708171206219e-05
5.373650720988717e-05
2.066788738841773e-05
-1.5156450751507488e-05
-3.720219729915378e-05
-4.5469352254521147e-05
-4.5469352254521147e-05
-5.6492225528344285e-05
-7.302653543907902e-05
-8.129369039444639e-05
-7.85379720759906e-05
-7.302653543907902e-05
-7.302653543907902e-05
-8.404940871290214e-05
-8.956084534981374e-05
-8.129369039444639e-05
-7.027081712062322e-05
-7.302653543907902e-05
-8.129369039444639e-05
-8.404940871290214e-05
-7.57822537575348e-05
-6.751509880216745e-05
-6.475938048371164e-05
-6.751509880216745e-05
-7.85379720759906e-05
-7.85379720759906e-05
-7.027081712062322e-05
-7.027081712062322e-05
-7.57822537575348e-05
-8.404940871290214e-05
-8.129369039444639e-05
-7.302653543907902e-05
-6.751509880216745e-05
-7.302653543907902e-05
-8.680512703135793e-05
-8.680512703135793e-05
-8.129369039444639e-05
-8.680512703135793e-05
-9.507228198672531e-05
-0.00010058371862363688
-9.507228198672531e-05
-8.129369039444639e-05
-7.302653543907902e-05
-7.302653543907902e-05
-7.302653543907902e-05
-6.200366216525588e-05
-4.8225070572976926e-05
-4.5469352254521147e-05
-5.098078889143272e-05
-4.2713633936065354e-05
-2.342360570687485e-05
-4.133577477684346e-06
-4.133577477684346e-06
-1.240073243305171e-05
-2.066788738841907e-05
-2.8935042343786426e-05
-3.4446478980697995e-05
-3.995791561760957e-05
-5.9247943846800084e-05
-8.680512703135793e-05
-0.00010333943694209268
-0.00010885087357900426
-0.00010609515526054846
-0.00011436231021591582
-0.00012538518348973897
-0.0001336523384451063
-0.0001226294651712832
-0.0001171180285343716
-0.0001171180285343716
-0.00012814090180819475
-0.00012814090180819475
-0.0001226294651712832
-0.00010333943694209268
-7.57822537575348e-05
-2.066788738841907e-05
0.00013365233844510492
0.00042300276188296266
0.0007592003967345686
0.001051306538490882
0.0012221610742351409
0.0011312223697260999
0.000767467551689936
0.0003182854657816428
-1.7912169069963278e-05
-0.00013089662012665053
-0.00014743093003738526
-0.0001612095216296642
-0.0001612095216296642
-0.0001584538033112084
-0.0001612095216296642
-0.00017223239490348733
-0.0001777438315403989
-0.00016947667658503157
-0.00015569808499275262
-0.00015294236667429682
-0.0001584538033112084
-0.0001612095216296642
-0.00015569808499275262
-0.00014467521171892948
-0.000150186648355841
-0.00015294236667429682
-0.00014191949340047367
-0.00013089662012665053
-0.0001226294651712832
-0.00012538518348973897
-0.00012814090180819475
-0.00012538518348973897
-0.00010885087357900426
-9.78280003051811e-05
-9.507228198672531e-05
-9.507228198672531e-05
-9.231656366826955e-05
-7.57822537575348e-05
-5.9247943846800084e-05
-5.6492225528344285e-05
-5.9247943846800084e-05
-5.098078889143272e-05
-3.169076066224221e-05
-6.889295796140132e-06
4.133577477683014e-06
6.8892957961388014e-06
1.7912169069961946e-05
3.9957915617608246e-05
5.9247943846798756e-05
6.751509880216611e-05
7.02708171206219e-05
7.30265354390777e-05
8.129369039444505e-05
9.507228198672396e-05
0.00010058371862363556
9.23165636682682e-05
8.404940871290084e-05
8.404940871290084e-05
7.853797207598924e-05
6.751509880216611e-05
5.373650720988717e-05
4.271363393606403e-05
2.6179324025329308e-05
6.8892957961388014e-06
-1.5156450751507488e-05
-4.5469352254521147e-05
-7.027081712062322e-05
-6.200366216525588e-05
-2.8935042343786426e-05
-6.889295796140132e-06
-1.240073243305171e-05
-3.4446478980697995e-05
-5.9247943846800084e-05
-7.027081712062322e-05
-7.302653543907902e-05
-9.231656366826955e-05
-0.0001226294651712832
-0.00015294236667429682
-0.00017223239490348733
-0.00018325526817731047
-0.00019703385976958942
-0.0002190796063172357
-0.00023010247959105888
-0.00023561391622797047
-0.00023010247959105888
-0.00022734676127260308
-0.00023836963454642628
-0.00024939250782024937
-0.00024939250782024937
-0.00022734676127260308
-0.00023010247959105888
-0.00022734676127260308
-0.00021632388799877996
-0.0001997895780880452
-0.00018876670481422206
-0.00018325526817731047
-0.00018601098649576628
-0.00018049954985885472
-0.0001584538033112084
-0.00013089662012665053
-0.00011436231021591582
-0.00011436231021591582
-0.0001226294651712832
-0.0001171180285343716
-0.00010885087357900426
-0.0001198737468528274
-0.00014191949340047367
-0.0001612095216296642
-0.00018325526817731047
-0.0001997895780880452
-0.0002108124513618684
-0.00022734676127260308
-0.00023836963454642628
-0.00024112535286488197
-0.00023010247959105888
-0.00021356816968032413
-0.00021356816968032413
-0.00021632388799877996
-0.0002108124513618684
-0.00019703385976958942
-0.00018325526817731047
-0.00018325526817731047
-0.00019152242313267784
-0.00018601098649576628
-0.0001336523384451063
3.444647898069667e-05
0.0003485983672846564
0.000753688960097657
0.0011312223697260999
0.0013571912718394743
0.0012772754406042562
0.0008501391012436096
0.00029623971923399637
-0.0001226294651712832
-0.0002466367895017936
-0.0002108124513618684
-0.00019427814145113364
-0.00020530101472495681
-0.0002190796063172357
-0.00021632388799877996
-0.00020530101472495681
-0.00019703385976958942
-0.0001997895780880452
-0.0001997895780880452
-0.00019427814145113364
-0.00018325526817731047
-0.00016947667658503157
-0.00016947667658503157
-0.00017223239490348733
-0.00016947667658503157
-0.0001584538033112084
-0.00014191949340047367
-0.0001391637750820179
-0.00014191949340047367
-0.0001198737468528274
-0.00010333943694209268
-9.231656366826955e-05
-9.231656366826955e-05
-8.956084534981374e-05
-7.57822537575348e-05
-5.9247943846800084e-05
-4.8225070572976926e-05
-4.2713633936065354e-05
-3.720219729915378e-05
-1.7912169069963278e-05
4.133577477683014e-06
2.3423605706873515e-05
3.720219729915245e-05
5.098078889143139e-05
7.02708171206219e-05
9.507228198672396e-05
0.00011711802853437029
0.00013089662012664922
0.00013640805676356078
0.00014467521171892812
0.00015845380331120705
0.00017498811322194178
0.00018049954985885336
0.00017498811322194178
0.0001694766765850302
0.00017498811322194178
0.00017498811322194178
0.00016396523994811866
0.00014191949340047234
0.00012262946517128183
0.00010609515526054714
0.00010058371862363556
8.404940871290084e-05
5.373650720988717e-05
2.066788738841773e-05
1.3778591592272275e-06
-4.133577477684346e-06
-1.240073243305171e-05
-3.720219729915378e-05
-6.200366216525588e-05
-7.85379720759906e-05
-7.85379720759906e-05
-8.129369039444639e-05
-9.231656366826955e-05
-0.00010885087357900426
-0.00011436231021591582
-0.00010885087357900426
-0.00010885087357900426
-0.0001171180285343716
-0.00012814090180819475
-0.0001364080567635621
-0.00013089662012665053
-0.0001226294651712832
-0.0001226294651712832
-0.0001336523384451063
-0.0001391637750820179
-0.0001364080567635621
-0.0001226294651712832
-0.00011160659189746003
-0.00011160659189746003
-0.00011436231021591582
-0.00010333943694209268
-8.129369039444639e-05
-6.751509880216745e-05
-7.027081712062322e-05
-5.098078889143272e-05
-2.066788738841907e-05
4.133577477683014e-06
6.8892957961388014e-06
-1.377859159228559e-06
-4.133577477684346e-06
-1.377859159228559e-06
1.3778591592272275e-06
-9.64501411459592e-06
-3.4446478980697995e-05
-6.200366216525588e-05
-7.57822537575348e-05
-7.85379720759906e-05
-8.956084534981374e-05
-0.00010609515526054846
-0.0001171180285343716
-0.00011160659189746003
-0.00010333943694209268
-0.00010333943694209268
-0.00011160659189746003
-0.00011436231021591582
-0.00010885087357900426
-9.507228198672531e-05
-9.231656366826955e-05
-9.507228198672531e-05
-9.507228198672531e-05
-3.4446478980697995e-05
0.0001832552681773092
0.0005745672693980309
0.0010430393835355147
0.001453641412985427
0.001630007385366597
0.0014260842298008686
0.0008859634393835348
0.00027970540932326175
-0.00010058371862363688
-0.00017223239490348733
-0.0001364080567635621
-0.00012814090180819475
-0.0001391637750820179
-0.000150186648355841
-0.00015294236667429682
-0.000150186648355841
-0.0001364080567635621
-0.00013089662012665053
-0.0001364080567635621
-0.0001364080567635621
-0.0001336523384451063
-0.0001198737468528274
-0.00011160659189746003
-0.0001171180285343716
-0.0001226294651712832
-0.0001198737468528274
-0.00010609515526054846
-9.78280003051811e-05
-0.00010058371862363688
-0.00010333943694209268
-0.00010333943694209268
-8.680512703135793e-05
-7.027081712062322e-05
-6.475938048371164e-05
-7.027081712062322e-05
-6.475938048371164e-05
-4.8225070572976926e-05
-3.169076066224221e-05
-2.066788738841907e-05
-1.5156450751507488e-05
6.8892957961388014e-06
3.444647898069667e-05
4.82250705729756e-05
5.9247943846798756e-05
7.30265354390777e-05
9.507228198672396e-05
0.00012262946517128183
0.00014467521171892812
0.0001556980849927513
0.00016396523994811866
0.0001832552681773092
0.00020805673304341124
0.00022734676127260172
0.00022459104295414594
0.00021632388799877858
0.0002135681696803228
0.00021632388799877858
0.00021632388799877858
0.00020254529640649968
0.00017498811322194178
0.0001556980849927513
0.00014467521171892812
0.00013089662012664922
0.00010609515526054714
7.30265354390777e-05
4.82250705729756e-05
3.444647898069667e-05
1.7912169069961946e-05
1.3778591592272275e-06
-2.066788738841907e-05
-4.2713633936065354e-05
-5.6492225528344285e-05
-5.9247943846800084e-05
-7.027081712062322e-05
-8.404940871290214e-05
-9.78280003051811e-05
-0.00010058371862363688
-9.78280003051811e-05
-9.507228198672531e-05
-0.00010885087357900426
-0.00012538518348973897
-0.00012814090180819475
-0.0001171180285343716
-0.00011436231021591582
-0.0001226294651712832
-0.0001336523384451063
-0.0001336523384451063
-0.0001226294651712832
-0.00011160659189746003
-0.00010333943694209268
-0.00010609515526054846
-0.00010609515526054846
-8.956084534981374e-05
-6.751509880216745e-05
-5.3736507209888505e-05
-4.2713633936065354e-05
-2.8935042343786426e-05
-1.5156450751507488e-05
-4.133577477684346e-06
-1.377859159228559e-06
-9.64501411459592e-06
-2.342360570687485e-05
-2.8935042343786426e-05
-4.8225070572976926e-05
-7.57822537575348e-05
-0.00010058371862363688
-0.00010885087357900426
-0.00010609515526054846
-0.00010609515526054846
-0.0001171180285343716
-0.00012814090180819475
-0.00012814090180819475
-0.0001226294651712832
-0.0001171180285343716
-0.0001198737468528274
-0.00013089662012665053
-0.0001364080567635621
-0.00012814090180819475
-0.00011436231021591582
-7.302653543907902e-05
9.507228198672396e-05
0.0004588271000228878
0.0009631235523002968
0.0014398628213931478
0.0016933889066910802
0.0015390686808575565
0.0009961921721217662
0.0003596212405584795
-7.027081712062322e-05
-0.0001777438315403989
-0.00017223239490348733
-0.00018876670481422206
-0.00019703385976958942
-0.00019152242313267784
-0.00018325526817731047
-0.00018876670481422206
-0.00019703385976958942
-0.00019427814145113364
-0.00018325526817731047
-0.00016672095826657574
-0.00016672095826657574
-0.00017223239490348733
-0.00016947667658503157
-0.0001584538033112084
-0.00014743093003738526
-0.00014467521171892948
-0.000150186648355841
-0.00015294236667429682
-0.00014191949340047367
-0.0001226294651712832
-0.0001171180285343716
-0.00012538518348973897
-0.00013089662012665053
-0.0001171180285343716
-9.78280003051811e-05
-8.956084534981374e-05
-8.680512703135793e-05
-8.404940871290214e-05
-7.027081712062322e-05
-4.8225070572976926e-05
-3.169076066224221e-05
-2.066788738841907e-05
-1.240073243305171e-05
6.8892957961388014e-06
3.720219729915245e-05
6.751509880216611e-05
8.68051270313566e-05
9.782800030517979e-05
0.00014467521171892812
0.0001694766765850302
0.0001832552681773092
0.0001832552681773092
0.00018876670481422076
0.00019978957808804387
0.0002135681696803228
0.000210812451361867
0.00019152242313267648
0.0001694766765850302
0.00016120952162966288
0.00015294236667429551
0.00013916377508201656
0.00011436231021591448
8.404940871290084e-05
6.475938048371032e-05
4.82250705729756e-05
2.6179324025329308e-05
4.133577477683014e-06
-2.6179324025330647e-05
-4.2713633936065354e-05
-4.2713633936065354e-05
-4.8225070572976926e-05
-6.200366216525588e-05
-8.404940871290214e-05
-9.231656366826955e-05
-8.956084534981374e-05
-8.680512703135793e-05
-9.231656366826955e-05
-0.00010609515526054846
-0.00011436231021591582
-0.00010885087357900426
-0.00010333943694209268
-0.00010333943694209268
-0.00011436231021591582
-0.00012814090180819475
-0.00012538518348973897
-0.00011160659189746003
-0.00010058371862363688
-0.00010058371862363688
-0.00010333943694209268
-9.231656366826955e-05
-7.57822537575348e-05
-6.475938048371164e-05
-6.751509880216745e-05
-6.200366216525588e-05
-3.720219729915378e-05
-9.64501411459592e-06
6.8892957961388014e-06
4.133577477683014e-06
-4.133577477684346e-06
-4.133577477684346e-06
1.3778591592272275e-06
4.133577477683014e-06
-6.889295796140132e-06
-3.169076066224221e-05
-5.9247943846800084e-05
-6.751509880216745e-05
-7.027081712062322e-05
-7.57822537575348e-05
-8.956084534981374e-05
-0.00010058371862363688
-9.507228198672531e-05
-7.85379720759906e-05
-7.027081712062322e-05
-9.507228198672531e-05
-8.956084534981374e-05
-7.85379720759906e-05
-7.57822537575348e-05
-7.85379720759906e-05
-7.027081712062322e-05
4.271363393606403e-05
0.00035410980392156795
0.0008501391012436096
0.001376481300068665
0.0017705490196078426
0.0018394419775692368
0.0014591528496223384
0.0007922690165560381
0.0001970338597695881
-8.680512703135793e-05
-0.00011436231021591582
-0.00011436231021591582
-0.0001171180285343716
-0.00012538518348973897
-0.0001336523384451063
-0.0001391637750820179
-0.00013089662012665053
-0.00011436231021591582
-0.00010885087357900426
-0.0001198737468528274
-0.0001198737468528274
-0.00010609515526054846
-9.231656366826955e-05
-8.680512703135793e-05
-9.231656366826955e-05
-9.507228198672531e-05
-8.956084534981374e-05
-7.027081712062322e-05
-5.9247943846800084e-05
-6.200366216525588e-05
-6.751509880216745e-05
-6.200366216525588e-05
-4.5469352254521147e-05
-2.6179324025330647e-05
-2.342360570687485e-05
-2.8935042343786426e-05
-2.066788738841907e-05
1.3778591592272275e-06
2.066788738841773e-05
2.8935042343785094e-05
3.720219729915245e-05
5.373650720988717e-05
7.578225375753347e-05
0.00010885087357900291
0.00013089662012664922
0.00014743093003738393
0.00016672095826657444
0.0001970338597695881
0.00023561391622796914
0.00026041538109407124
0.00027143825436789435
0.00027970540932326175
0.000301751155870908
0.00032379690241855427
0.0003348197756923775
0.00033206405737392166
0.00032379690241855427
0.00032379690241855427
0.00032655262073701005
0.00032104118410009855
0.00027143825436789435
0.00024388107118333642
0.00022734676127260172
0.0002135681696803228
0.00018876670481422076
0.00015294236667429551
0.00012262946517128183
0.00010609515526054714
8.956084534981241e-05
6.751509880216611e-05
4.271363393606403e-05
2.3423605706873515e-05
2.066788738841773e-05
2.066788738841773e-05
1.5156450751506162e-05
1.3778591592272275e-06
-9.64501411459592e-06
-6.889295796140132e-06
-1.377859159228559e-06
-4.133577477684346e-06
-1.5156450751507488e-05
-2.8935042343786426e-05
-3.169076066224221e-05
-2.342360570687485e-05
-1.5156450751507488e-05
-2.342360570687485e-05
-2.8935042343786426e-05
-2.6179324025330647e-05
-9.64501411459592e-06
4.133577477683014e-06
6.8892957961388014e-06
4.133577477683014e-06
4.133577477683014e-06
2.066788738841773e-05
4.82250705729756e-05
7.02708171206219e-05
7.853797207598924e-05
8.129369039444505e-05
8.68051270313566e-05
0.00010058371862363556
0.00010885087357900291
9.782800030517979e-05
8.68051270313566e-05
8.129369039444505e-05
6.751509880216611e-05
4.82250705729756e-05
2.3423605706873515e-05
9.64501411459459e-06
6.8892957961388014e-06
1.2400732433050376e-05
1.5156450751506162e-05
6.8892957961388014e-06
1.3778591592272275e-06
-1.377859159228559e-06
6.8892957961388014e-06
1.5156450751506162e-05
9.64501411459459e-06
-4.133577477684346e-06
-9.64501411459592e-06
4.133577477683014e-06
4.82250705729756e-05
0.00020805673304341124
0.0005663001144426635
0.0010981537499046305
0.0016465416952773319
0.0019166020904859992
0.0013737255817502093
0.0006517273823147929
0.00011987374685282605
-4.2713633936065354e-05
-2.8935042343786426e-05
-4.5469352254521147e-05
-6.475938048371164e-05
-6.475938048371164e-05
-5.6492225528344285e-05
-5.098078889143272e-05
-5.6492225528344285e-05
-6.200366216525588e-05
-5.3736507209888505e-05
-3.720219729915378e-05
-2.6179324025330647e-05
-2.6179324025330647e-05
-3.4446478980697995e-05
-3.169076066224221e-05
-1.5156450751507488e-05
-4.133577477684346e-06
-1.377859159228559e-06
-4.133577477684346e-06
-4.133577477684346e-06
9.64501411459459e-06
2.6179324025329308e-05
3.444647898069667e-05
3.169076066224089e-05
2.6179324025329308e-05
3.9957915617608246e-05
6.200366216525454e-05
7.578225375753347e-05
7.853797207598924e-05
8.404940871290084e-05
9.782800030517979e-05
0.00011987374685282605
0.00014191949340047234
0.00015845380331120705
0.000172232394903486
0.00019978957808804387
0.00023285819790951333
0.000263171099412527
0.00029072828259708476
0.0003072625925078196
0.00032655262073701005
0.00035135408560311223
0.00037615555046921414
0.00038717842374303736
0.00038993414206149314
0.000392689860379949
0.0004009570153353164
0.0004064684519722279
0.0004009570153353164
0.0003816669871061258
0.00035410980392156795
0.0003348197756923775
0.0003182854657816428
0.0002934840009155406
0.00024663678950179223
0.00020530101472495543
0.00016396523994811866
0.00013089662012664922
0.00010333943694209132
8.956084534981241e-05
8.956084534981241e-05
0.00012814090180819342
0.0001253851834897376
9.782800030517979e-05
6.475938048371032e-05
4.546935225451981e-05
3.9957915617608246e-05
3.720219729915245e-05
1.5156450751506162e-05
-1.240073243305171e-05
-3.720219729915378e-05
-4.8225070572976926e-05
-5.9247943846800084e-05
-7.85379720759906e-05
-0.00010058371862363688
-0.00010885087357900426
-0.00010058371862363688
-9.231656366826955e-05
-8.404940871290214e-05
-8.404940871290214e-05
-8.129369039444639e-05
-6.751509880216745e-05
-4.8225070572976926e-05
-3.720219729915378e-05
-3.4446478980697995e-05
-2.8935042343786426e-05
-4.133577477684346e-06
3.169076066224089e-05
5.373650720988717e-05
5.098078889143139e-05
3.9957915617608246e-05
3.9957915617608246e-05
4.546935225451981e-05
4.271363393606403e-05
2.6179324025329308e-05
-6.889295796140132e-06
-3.995791561760957e-05
-5.6492225528344285e-05
-5.9247943846800084e-05
-7.57822537575348e-05
-9.78280003051811e-05
-0.00011160659189746003
-0.00011160659189746003
-0.00010885087357900426
-0.00011160659189746003
-0.0001198737468528274
-0.00012538518348973897
-0.0001226294651712832
-0.00011160659189746003
-0.00010885087357900426
-0.00011160659189746003
-0.00010333943694209268
-1.7912169069963278e-05
0.00023561391622796914
0.000679284565499351
0.0011946038910505827
0.0016217402304112296
0.0017898390478370328
0.0015335572442206446
0.0008887191577019906
0.00023010247959105753
-0.00012814090180819475
-0.0001584538033112084
-0.00010885087357900426
-9.78280003051811e-05
-0.00010333943694209268
-0.00011436231021591582
-0.00010885087357900426
-9.507228198672531e-05
-9.231656366826955e-05
-9.507228198672531e-05
-9.78280003051811e-05
-8.404940871290214e-05
-6.751509880216745e-05
-5.9247943846800084e-05
-6.200366216525588e-05
-6.475938048371164e-05
-5.6492225528344285e-05
-3.995791561760957e-05
-3.4446478980697995e-05
-2.8935042343786426e-05
-2.8935042343786426e-05
-2.066788738841907e-05
1.3778591592272275e-06
1.5156450751506162e-05
1.7912169069961946e-05
1.7912169069961946e-05
2.8935042343785094e-05
4.82250705729756e-05
6.475938048371032e-05
7.30265354390777e-05
8.129369039444505e-05
0.00010058371862363556
0.00012262946517128183
0.00014467521171892812
0.00016396523994811866
0.00018049954985885336
0.0001970338597695881
0.0002218353246356902
0.0002493925078202481
0.0002741939726863501
0.0002824611276417174
0.00029072828259708476
0.0003072625925078196
0.00032655262073701005
0.0003375754940108332
0.00033206405737392166
0.00032379690241855427
0.00032379690241855427
0.00032104118410009855
0.0003127740291447311
0.00029072828259708476
0.00026592681773098274
0.00024112535286488067
0.00022459104295414594
0.00020530101472495543
0.00017774383154039756
0.00013916377508201656
0.00010609515526054714
8.404940871290084e-05
6.751509880216611e-05
4.546935225451981e-05
1.7912169069961946e-05
-4.133577477684346e-06
-1.240073243305171e-05
-1.5156450751507488e-05
-2.6179324025330647e-05
-4.2713633936065354e-05
-5.3736507209888505e-05
-5.6492225528344285e-05
-4.8225070572976926e-05
-5.098078889143272e-05
-7.302653543907902e-05
-7.027081712062322e-05
-6.475938048371164e-05
-6.200366216525588e-05
-7.027081712062322e-05
-7.85379720759906e-05
-7.85379720759906e-05
-6.475938048371164e-05
-5.098078889143272e-05
-4.8225070572976926e-05
-5.098078889143272e-05
-4.8225070572976926e-05
-3.4446478980697995e-05
-1.7912169069963278e-05
-4.133577477684346e-06
9.64501411459459e-06
2.3423605706873515e-05
3.444647898069667e-05
4.271363393606403e-05
4.546935225451981e-05
3.9957915617608246e-05
2.8935042343785094e-05
2.8935042343785094e-05
3.169076066224089e-05
1.7912169069961946e-05
-1.5156450751507488e-05
-3.720219729915378e-05
-4.5469352254521147e-05
-4.2713633936065354e-05
-4.2713633936065354e-05
-5.098078889143272e-05
-5.6492225528344285e-05
-5.3736507209888505e-05
-4.5469352254521147e-05
-4.2713633936065354e-05
-4.5469352254521147e-05
-5.6492225528344285e-05
-5.6492225528344285e-05
-4.8225070572976926e-05
-3.995791561760957e-05
-2.066788738841907e-05
8.68051270313566e-05
0.00037891126878767
0.0008336047913328749
0.0012910540321965354
0.0016052059205004952
0.0015996944838635836
0.0012001153276874944
0.0005938572976272215
8.956084534981241e-05
-0.00012538518348973897
-0.0001226294651712832
-0.00010885087357900426
-0.00011160659189746003
-0.00010609515526054846
-9.78280003051811e-05
-0.00010058371862363688
-0.00010609515526054846
-0.00010058371862363688
-9.231656366826955e-05
-8.680512703135793e-05
-8.680512703135793e-05
-8.956084534981374e-05
-8.680512703135793e-05
-7.57822537575348e-05
-6.475938048371164e-05
-6.475938048371164e-05
-5.9247943846800084e-05
-4.5469352254521147e-05
-3.169076066224221e-05
-2.6179324025330647e-05
-2.8935042343786426e-05
-3.169076066224221e-05
-2.342360570687485e-05
-9.64501411459592e-06
-1.377859159228559e-06
-4.133577477684346e-06
-1.377859159228559e-06
1.5156450751506162e-05
3.169076066224089e-05
4.82250705729756e-05
5.649222552834297e-05
6.751509880216611e-05
8.404940871290084e-05
0.00010885087357900291
0.00013365233844510492
0.00014743093003738393
0.00015845380331120705
0.000172232394903486
0.00019978957808804387
0.0002190796063172344
0.00022459104295414594
0.00022734676127260172
0.00023561391622796914
0.00024388107118333642
0.00025214822613870384
0.00025214822613870384
0.00024388107118333642
0.00023010247959105753
0.00022459104295414594
0.00021632388799877858
0.00019427814145113231
0.0001694766765850302
0.00014743093003738393
0.00012814090180819342
0.00011160659189745871
9.23165636682682e-05
6.751509880216611e-05
4.271363393606403e-05
2.6179324025329308e-05
2.066788738841773e-05
6.8892957961388014e-06
-1.5156450751507488e-05
-3.169076066224221e-05
-3.720219729915378e-05
-3.720219729915378e-05
-3.720219729915378e-05
-4.5469352254521147e-05
-5.9247943846800084e-05
-6.200366216525588e-05
-5.3736507209888505e-05
-5.3736507209888505e-05
-5.9247943846800084e-05
-7.027081712062322e-05
-7.85379720759906e-05
-7.85379720759906e-05
-6.751509880216745e-05
-6.200366216525588e-05
-6.751509880216745e-05
-6.751509880216745e-05
-3.995791561760957e-05
-3.169076066224221e-05
-3.995791561760957e-05
-3.995791561760957e-05
-2.066788738841907e-05
4.133577477683014e-06
2.066788738841773e-05
1.7912169069961946e-05
9.64501411459459e-06
1.5156450751506162e-05
1.7912169069961946e-05
1.7912169069961946e-05
9.64501411459459e-06
-9.64501411459592e-06
-3.720219729915378e-05
-5.098078889143272e-05
-5.9247943846800084e-05
-7.027081712062322e-05
-8.129369039444639e-05
-8.956084534981374e-05
-8.680512703135793e-05
-7.85379720759906e-05
-7.57822537575348e-05
-8.680512703135793e-05
-9.231656366826955e-05
-8.680512703135793e-05
-7.57822537575348e-05
-7.85379720759906e-05
-8.404940871290214e-05
-7.027081712062322e-05
-9.64501411459592e-06
0.00016672095826657444
0.0004918957198443572
0.0008997420309758136
0.001271764003967345
0.0014701757228961615
0.0013516798352025624
0.000896986312657358
0.0003623769588769353
-2.066788738841907e-05
-0.00013089662012665053
-0.0001171180285343716
-0.0001198737468528274
-0.00013089662012665053
-0.00014467521171892948
-0.000150186648355841
-0.00014467521171892948
-0.0001364080567635621
-0.0001364080567635621
-0.0001391637750820179
-0.0001391637750820179
-0.00012814090180819475
-0.00011436231021591582
-0.00011436231021591582
-0.0001171180285343716
-0.0001171180285343716
-0.00011160659189746003
-0.00010058371862363688
-9.507228198672531e-05
-9.78280003051811e-05
-0.00010058371862363688
-9.507228198672531e-05
-8.129369039444639e-05
-7.302653543907902e-05
-7.302653543907902e-05
-7.302653543907902e-05
-5.6492225528344285e-05
-4.5469352254521147e-05
-3.720219729915378e-05
-3.4446478980697995e-05
-2.342360570687485e-05
-4.133577477684346e-06
1.7912169069961946e-05
3.444647898069667e-05
4.82250705729756e-05
6.475938048371032e-05
8.956084534981241e-05
0.00011987374685282605
0.00014467521171892812
0.0001556980849927513
0.00016672095826657444
0.0001832552681773092
0.00020530101472495543
0.0002135681696803228
0.0002135681696803228
0.000210812451361867
0.0002135681696803228
0.00021632388799877858
0.000210812451361867
0.00019427814145113231
0.000172232394903486
0.00015294236667429551
0.00014191949340047234
0.0001253851834897376
9.782800030517979e-05
7.02708171206219e-05
4.82250705729756e-05
3.444647898069667e-05
1.7912169069961946e-05
-4.133577477684346e-06
-2.8935042343786426e-05
-4.8225070572976926e-05
-5.098078889143272e-05
-4.8225070572976926e-05
-5.6492225528344285e-05
-6.751509880216745e-05
-7.302653543907902e-05
-7.027081712062322e-05
-6.751509880216745e-05
-6.751509880216745e-05
-7.57822537575348e-05
-8.680512703135793e-05
-8.404940871290214e-05
-7.57822537575348e-05
-7.302653543907902e-05
-8.129369039444639e-05
-8.404940871290214e-05
-7.302653543907902e-05
-5.9247943846800084e-05
-4.8225070572976926e-05
-4.8225070572976926e-05
-5.098078889143272e-05
-4.8225070572976926e-05
-2.6179324025330647e-05
-4.133577477684346e-06
1.2400732433050376e-05
1.5156450751506162e-05
1.5156450751506162e-05
1.7912169069961946e-05
2.6179324025329308e-05
9.64501411459459e-06
1.3778591592272275e-06
-4.133577477684346e-06
-2.066788738841907e-05
-3.720219729915378e-05
-5.6492225528344285e-05
-6.751509880216745e-05
-6.475938048371164e-05
-5.6492225528344285e-05
-5.6492225528344285e-05
-6.475938048371164e-05
-7.027081712062322e-05
-6.475938048371164e-05
-5.098078889143272e-05
-4.8225070572976926e-05
-5.3736507209888505e-05
-6.475938048371164e-05
-5.9247943846800084e-05
-3.720219729915378e-05
3.169076066224089e-05
0.00022459104295414594
0.0005883458609903097
0.001048550820172426
0.00146466428625925
0.0016492974135957881
0.0014481299763485153
0.0009052534676127252
0.00032379690241855427
-3.169076066224221e-05
-9.78280003051811e-05
-8.956084534981374e-05
-0.00010885087357900426
-0.0001198737468528274
-0.0001198737468528274
-0.00010885087357900426
-0.00010058371862363688
-0.00010609515526054846
-0.00011160659189746003
-0.00010609515526054846
-9.231656366826955e-05
-8.680512703135793e-05
-8.956084534981374e-05
-9.507228198672531e-05
-8.956084534981374e-05
-8.129369039444639e-05
-7.302653543907902e-05
-7.302653543907902e-05
-7.57822537575348e-05
-7.027081712062322e-05
-5.6492225528344285e-05
-4.8225070572976926e-05
-4.2713633936065354e-05
-4.5469352254521147e-05
-4.2713633936065354e-05
-2.8935042343786426e-05
-1.240073243305171e-05
-4.133577477684346e-06
1.3778591592272275e-06
6.8892957961388014e-06
2.3423605706873515e-05
4.546935225451981e-05
6.475938048371032e-05
7.853797207598924e-05
9.23165636682682e-05
0.00011711802853437029
0.00015018664835583973
0.00019152242313267648
0.00020805673304341124
0.00022734676127260172
0.0002493925078202481
0.00027143825436789435
0.0002741939726863501
0.0002769496910048059
0.00027970540932326175
0.0002879725642786291
0.00029072828259708476
0.0002824611276417174
0.00026592681773098274
0.0002493925078202481
0.00023561391622796914
0.00022459104295414594
0.00020254529640649968
0.0001694766765850302
0.00014191949340047234
0.0001253851834897376
0.00010885087357900291
8.68051270313566e-05
5.9247943846798756e-05
3.720219729915245e-05
2.6179324025329308e-05
1.7912169069961946e-05
1.2400732433050376e-05
1.3778591592272275e-06
-1.240073243305171e-05
-1.7912169069963278e-05
-1.240073243305171e-05
-1.5156450751507488e-05
-2.6179324025330647e-05
-3.720219729915378e-05
-3.995791561760957e-05
-3.4446478980697995e-05
-3.4446478980697995e-05
-3.995791561760957e-05
-4.8225070572976926e-05
-5.3736507209888505e-05
-4.8225070572976926e-05
-3.4446478980697995e-05
-2.8935042343786426e-05
-3.4446478980697995e-05
-3.169076066224221e-05
-1.5156450751507488e-05
-4.133577477684346e-06
-1.377859159228559e-06
1.3778591592272275e-06
2.066788738841773e-05
4.271363393606403e-05
6.200366216525454e-05
6.751509880216611e-05
5.9247943846798756e-05
5.373650720988717e-05
5.373650720988717e-05
5.649222552834297e-05
5.098078889143139e-05
3.169076066224089e-05
1.3778591592272275e-06
-1.5156450751507488e-05
-1.7912169069963278e-05
-2.342360570687485e-05
-3.169076066224221e-05
-4.2713633936065354e-05
-4.2713633936065354e-05
-2.6179324025330647e-05
-2.6179324025330647e-05
-3.169076066224221e-05
-3.720219729915378e-05
-3.4446478980697995e-05
-3.169076066224221e-05
-2.8935042343786426e-05
-2.8935042343786426e-05
4.546935225451981e-05
0.00029072828259708476
0.0007426660868238338
0.0012772754406042562
0.0017181903715571825
0.0018752663157091622
0.0015996944838635836
0.0009796578622110316
0.00035410980392156795
-9.64501411459592e-06
-7.302653543907902e-05
-6.751509880216745e-05
-7.85379720759906e-05
-8.129369039444639e-05
-8.680512703135793e-05
-9.507228198672531e-05
-9.507228198672531e-05
-8.956084534981374e-05
-7.57822537575348e-05
-7.302653543907902e-05
-8.129369039444639e-05
-8.404940871290214e-05
-7.57822537575348e-05
-6.475938048371164e-05
-5.6492225528344285e-05
-6.200366216525588e-05
-6.475938048371164e-05
-5.3736507209888505e-05
-4.5469352254521147e-05
-4.2713633936065354e-05
-3.720219729915378e-05
-3.720219729915378e-05
-2.6179324025330647e-05
-1.240073243305171e-05
-6.889295796140132e-06
-6.889295796140132e-06
-6.889295796140132e-06
1.3778591592272275e-06
1.7912169069961946e-05
3.444647898069667e-05
4.271363393606403e-05
5.373650720988717e-05
7.02708171206219e-05
9.782800030517979e-05
0.00012814090180819342
0.00014743093003738393
0.00016120952162966288
0.0001832552681773092
0.0002135681696803228
0.00024388107118333642
0.00026041538109407124
0.0002741939726863501
0.0002852168459601733
0.000301751155870908
0.000315529747463187
0.0003182854657816428
0.0003127740291447311
0.00030450687418936376
0.0002989954375524522
0.0002879725642786291
0.000263171099412527
0.00023285819790951333
0.000210812451361867
0.00019152242313267648
0.0001694766765850302
0.00013640805676356078
0.00010333943694209132
8.129369039444505e-05
7.02708171206219e-05
5.098078889143139e-05
2.8935042343785094e-05
4.133577477683014e-06
-9.64501411459592e-06
-1.240073243305171e-05
-1.5156450751507488e-05
-2.066788738841907e-05
-3.4446478980697995e-05
-4.5469352254521147e-05
-4.5469352254521147e-05
-3.995791561760957e-05
-3.995791561760957e-05
-5.3736507209888505e-05
-6.475938048371164e-05
-6.200366216525588e-05
-5.9247943846800084e-05
-5.9247943846800084e-05
-6.751509880216745e-05
-7.302653543907902e-05
-6.475938048371164e-05
-5.3736507209888505e-05
-4.5469352254521147e-05
-4.5469352254521147e-05
-4.2713633936065354e-05
-3.720219729915378e-05
-1.7912169069963278e-05
1.2400732433050376e-05
3.169076066224089e-05
3.720219729915245e-05
4.271363393606403e-05
5.098078889143139e-05
6.475938048371032e-05
6.475938048371032e-05
5.373650720988717e-05
4.546935225451981e-05
4.271363393606403e-05
2.8935042343785094e-05
9.64501411459459e-06
-1.240073243305171e-05
-2.6179324025330647e-05
-2.6179324025330647e-05
-2.342360570687485e-05
-2.342360570687485e-05
-2.8935042343786426e-05
-3.169076066224221e-05
-2.8935042343786426e-05
-1.7912169069963278e-05
-1.240073243305171e-05
-1.7912169069963278e-05
-3.169076066224221e-05
-3.169076066224221e-05
-2.066788738841907e-05
1.5156450751506162e-05
0.0005525215228503846
0.001103665186541542
0.0016465416952773319
0.0019799836118104823
0.0018697548790722507
0.0013020769054703587
0.0005718115510795751
5.098078889143139e-05
-0.00010058371862363688
-7.57822537575348e-05
-8.129369039444639e-05
-0.00010333943694209268
-0.00010609515526054846
-9.78280003051811e-05
-9.78280003051811e-05
-0.00011436231021591582
-0.00013089662012665053
-0.0001391637750820179
-0.000150186648355841
-0.0001584538033112084
-0.0001584538033112084
-0.0001364080567635621
-9.507228198672531e-05
-5.098078889143272e-05
-3.995791561760957e-05
-4.8225070572976926e-05
-6.200366216525588e-05
-6.200366216525588e-05
-5.6492225528344285e-05
-5.3736507209888505e-05
-6.475938048371164e-05
-8.404940871290214e-05
-9.78280003051811e-05
-0.00010333943694209268
-0.00010885087357900426
-0.00011436231021591582
-0.0001171180285343716
-0.00011436231021591582
-0.00010333943694209268
-7.57822537575348e-05
-5.6492225528344285e-05
-4.2713633936065354e-05
-2.342360570687485e-05
4.133577477683014e-06
3.9957915617608246e-05
6.475938048371032e-05
8.129369039444505e-05
0.00010058371862363556
0.00012262946517128183
0.00014743093003738393
0.00016672095826657444
0.00017774383154039756
0.00018049954985885336
0.00018876670481422076
0.00019978957808804387
0.00019978957808804387
0.00018876670481422076
0.00016396523994811866
0.00014467521171892812
0.00013089662012664922
0.00010609515526054714
7.30265354390777e-05
3.444647898069667e-05
1.3778591592272275e-06
-2.066788738841907e-05
-4.2713633936065354e-05
-0.00010333943694209268
-0.00012538518348973897
-0.0001391637750820179
-0.0001391637750820179
-0.00014743093003738526
-0.00016947667658503157
-0.00018601098649576628
-0.00018876670481422206
-0.00018325526817731047
-0.00018049954985885472
-0.00018325526817731047
-0.00018049954985885472
-0.00017498811322194308
-0.0001612095216296642
-0.00015569808499275262
-0.0001584538033112084
-0.00016672095826657574
-0.00017498811322194308
-0.00016396523994811996
-0.000150186648355841
-0.000150186648355841
-0.00015569808499275262
-0.00015294236667429682
-0.0001391637750820179
-0.00013089662012665053
-0.00013089662012665053
-0.00012814090180819475
-0.00011436231021591582
-8.680512703135793e-05
-5.9247943846800084e-05
-4.5469352254521147e-05
-5.098078889143272e-05
-5.6492225528344285e-05
-5.098078889143272e-05
-4.2713633936065354e-05
-4.5469352254521147e-05
-6.475938048371164e-05
-8.956084534981374e-05
-0.00010333943694209268
-0.00010058371862363688
-0.00010058371862363688
-0.00010885087357900426
-0.0001171180285343716
-0.00011436231021591582
-0.00010609515526054846
-0.00010058371862363688
-0.00010609515526054846
-0.00011436231021591582
-0.0001171180285343716
-0.00011160659189746003
-0.00010333943694209268
-9.78280003051811e-05
-9.78280003051811e-05
-5.6492225528344285e-05
0.00011987374685282605
0.00048362856488898997
0.0009521006790264736
0.0013627027084763858
0.0015831601739528486
0.0014426185397116034
0.0009190320592050041
0.00027970540932326175
-0.0001584538033112084
-0.0002604153810940725
-0.00021632388799877996
-0.00019427814145113364
-0.0001997895780880452
-0.0002080567330434125
-0.00020530101472495681
-0.0001997895780880452
-0.00019427814145113364
-0.00019703385976958942
-0.00020530101472495681
-0.0002080567330434125
-0.0001997895780880452
-0.00018876670481422206
-0.00019152242313267784
-0.00019427814145113364
-0.00019427814145113364
-0.00018601098649576628
-0.00017498811322194308
-0.00016947667658503157
-0.00016947667658503157
-0.00017223239490348733
-0.00016396523994811996
-0.00015294236667429682
-0.000150186648355841
-0.000150186648355841
-0.000150186648355841
-0.0001364080567635621
-0.0001198737468528274
-0.00010333943694209268
-0.00010058371862363688
-9.231656366826955e-05
-7.57822537575348e-05
-5.098078889143272e-05
-2.342360570687485e-05
-6.889295796140132e-06
6.8892957961388014e-06
2.8935042343785094e-05
5.649222552834297e-05
8.129369039444505e-05
0.00010058371862363556
0.00011711802853437029
0.00012814090180819342
0.00015018664835583973
0.0001694766765850302
0.00017498811322194178
0.00016672095826657444
0.00015845380331120705
0.00015018664835583973
0.00014743093003738393
0.00013640805676356078
0.00011436231021591448
9.23165636682682e-05
7.853797207598924e-05
7.30265354390777e-05
6.475938048371032e-05
4.82250705729756e-05
3.444647898069667e-05
2.8935042343785094e-05
1.7912169069961946e-05
-6.889295796140132e-06
-3.995791561760957e-05
-7.302653543907902e-05
-9.231656366826955e-05
-9.507228198672531e-05
-0.00010609515526054846
-0.00012538518348973897
-0.000150186648355841
-0.00016672095826657574
-0.00016396523994811996
-0.00016947667658503157
-0.0001777438315403989
-0.00018325526817731047
-0.0001777438315403989
-0.00016947667658503157
-0.00017223239490348733
-0.00018049954985885472
-0.00018601098649576628
-0.00018325526817731047
-0.0001777438315403989
-0.00017498811322194308
-0.0001777438315403989
-0.0001777438315403989
-0.0001198737468528274
2.8935042343785094e-05
0.0002989954375524522
0.0007206203402761877
0.001180825299458304
0.0014867100328068963
0.0014867100328068963
0.0009934364538033101
0.00019427814145113231
-0.0003596212405584808
-0.0003982012970168618
-0.0002686825360494398
-0.0002108124513618684
-0.0002108124513618684
-0.00021632388799877996
-0.00021632388799877996
-0.0002080567330434125
-0.0001997895780880452
-0.00019703385976958942
-0.0001997895780880452
-0.0001997895780880452
-0.00019427814145113364
-0.00018049954985885472
-0.00017498811322194308
-0.0001777438315403989
-0.00018049954985885472
-0.0001777438315403989
-0.00016947667658503157
-0.00016947667658503157
-0.00017498811322194308
-0.00017498811322194308
-0.00016672095826657574
-0.00015569808499275262
-0.00014467521171892948
-0.00014467521171892948
-0.00014743093003738526
-0.00014191949340047367
-0.00012538518348973897
-0.00010885087357900426
-9.78280003051811e-05
-9.507228198672531e-05
-8.404940871290214e-05
-5.9247943846800084e-05
-3.169076066224221e-05
-6.889295796140132e-06
6.8892957961388014e-06
2.6179324025329308e-05
5.9247943846798756e-05
9.23165636682682e-05
0.00011436231021591448
0.00013089662012664922
0.00015018664835583973
0.000172232394903486
0.00018601098649576498
0.00018601098649576498
0.00018049954985885336
0.00018049954985885336
0.00017774383154039756
0.00016120952162966288
0.00013365233844510492
9.782800030517979e-05
6.751509880216611e-05
4.546935225451981e-05
2.3423605706873515e-05
-1.5156450751507488e-05
-5.6492225528344285e-05
-8.404940871290214e-05
-0.00010333943694209268
-0.0001198737468528274
-0.00014191949340047367
-0.00016672095826657574
-0.00018601098649576628
-0.00019427814145113364
-0.00019703385976958942
-0.00020254529640650095
-0.0002108124513618684
-0.0002218353246356915
-0.0002190796063172357
-0.0002108124513618684
-0.00020530101472495681
-0.00020530101472495681
-0.00021356816968032413
-0.00020530101472495681
-0.00019152242313267784
-0.00018601098649576628
-0.00018876670481422206
-0.00019703385976958942
-0.00019703385976958942
-0.00018325526817731047
-0.00017498811322194308
-0.00018049954985885472
-0.00018325526817731047
-0.00018325526817731047
-0.00017498811322194308
-0.00016947667658503157
-0.00017223239490348733
-0.00018325526817731047
-0.00018876670481422206
-0.00018601098649576628
-0.0001777438315403989
-0.00018049954985885472
-0.00018876670481422206
-0.00019152242313267784
-0.00019152242313267784
-0.00018876670481422206
-0.00018876670481422206
-0.00019427814145113364
-0.00019427814145113364
-0.00018325526817731047
-0.00016396523994811996
-0.00015569808499275262
-0.0001612095216296642
-0.00016947667658503157
-0.0001612095216296642
-0.0001364080567635621
-0.0001171180285343716
-0.0001226294651712832
-0.00012538518348973897
-0.0001198737468528274
-0.0001226294651712832
-0.0001391637750820179
-0.0001612095216296642
-0.00018049954985885472
-0.00019427814145113364
-0.0001997895780880452
-0.00021356816968032413
-0.00023285819790951464
-0.00024388107118333775
-0.00024112535286488197
-0.00023561391622797047
-0.00023561391622797047
-0.00024388107118333775
-0.00024939250782024937
-0.0002466367895017936
-0.00023836963454642628
-0.00023561391622797047
-0.00023285819790951464
-0.0002218353246356915
-0.00015569808499275262
3.169076066224089e-05
0.0003568655222400236
0.0007316432135500107
0.0010623294117647053
0.0012524739757381546
0.0011642909895475692
0.0007564446784161128
0.00024112535286488067
-0.0001391637750820179
-0.00025765966277561676
-0.0002604153810940725
-0.0002631710994125282
-0.00027419397268635144
-0.00029072828259708617
-0.00029348400091554195
-0.0002852168459601746
-0.00027970540932326305
-0.00027970540932326305
-0.00028797256427863044
-0.0002852168459601746
-0.00027419397268635144
-0.0002604153810940725
-0.0002549039444571609
-0.0002604153810940725
-0.00026592681773098404
-0.0002604153810940725
-0.0002466367895017936
-0.00023836963454642628
-0.00024112535286488197
-0.0002466367895017936
-0.00024112535286488197
-0.00023010247959105888
-0.0002190796063172357
-0.00021632388799877996
-0.00021632388799877996
-0.0002080567330434125
-0.00019152242313267784
-0.00018049954985885472
-0.00017223239490348733
-0.00016947667658503157
-0.00016396523994811996
-0.00014467521171892948
-0.00011160659189746003
-0.00010609515526054846
-9.507228198672531e-05
-7.027081712062322e-05
-4.2713633936065354e-05
-2.6179324025330647e-05
-1.7912169069963278e-05
-9.64501411459592e-06
9.64501411459459e-06
2.8935042343785094e-05
4.271363393606403e-05
4.271363393606403e-05
3.9957915617608246e-05
4.271363393606403e-05
5.098078889143139e-05
5.373650720988717e-05
4.82250705729756e-05
3.444647898069667e-05
2.6179324025329308e-05
2.6179324025329308e-05
2.066788738841773e-05
4.133577477683014e-06
-1.5156450751507488e-05
-3.4446478980697995e-05
-4.2713633936065354e-05
-4.8225070572976926e-05
-6.475938048371164e-05
-8.680512703135793e-05
-0.00010058371862363688
-0.00010333943694209268
-0.00010885087357900426
-0.0001171180285343716
-0.00013089662012665053
-0.00014191949340047367
-0.0001364080567635621
-0.00012814090180819475
-0.00013089662012665053
-0.00014191949340047367
-0.000150186648355841
-0.000150186648355841
-0.00014191949340047367
-0.0001391637750820179
-0.00014743093003738526
-0.00015294236667429682
-0.000150186648355841
-0.00014191949340047367
-0.0001336523384451063
-0.00012814090180819475
-0.00012538518348973897
-0.0001171180285343716
-0.00010058371862363688
-8.404940871290214e-05
-7.85379720759906e-05
-7.85379720759906e-05
-7.302653543907902e-05
-4.5469352254521147e-05
-1.240073243305171e-05
9.64501411459459e-06
1.5156450751506162e-05
1.7912169069961946e-05
2.6179324025329308e-05
3.444647898069667e-05
3.444647898069667e-05
2.3423605706873515e-05
4.133577477683014e-06
-2.066788738841907e-05
-2.8935042343786426e-05
-4.5469352254521147e-05
-6.200366216525588e-05
-5.3736507209888505e-05
-3.720219729915378e-05
-4.2713633936065354e-05
-6.200366216525588e-05
-9.78280003051811e-05
-0.0001226294651712832
-0.00012538518348973897
-0.00010609515526054846
-8.680512703135793e-05
-6.751509880216745e-05
-4.2713633936065354e-05
1.3778591592272275e-06
0.00015845380331120705
0.0004891400015259016
0.0009383220874341949
0.00135994699015793
0.001607961638818951
0.0015115114976729984
0.001007215045395589
0.00034584264896620056
-0.0001364080567635621
-0.00027970540932326305
-0.00024112535286488197
-0.00022734676127260308
-0.00024112535286488197
-0.00024939250782024937
-0.0002466367895017936
-0.00023285819790951464
-0.00022459104295414727
-0.00022459104295414727
-0.00022734676127260308
-0.00022459104295414727
-0.0002080567330434125
-0.00019703385976958942
-0.00019427814145113364
-0.0001997895780880452
-0.00019703385976958942
-0.00018601098649576628
-0.00017223239490348733
-0.00017223239490348733
-0.0001777438315403989
-0.0001777438315403989
-0.00016947667658503157
-0.0001584538033112084
-0.00015294236667429682
-0.0001612095216296642
-0.00016947667658503157
-0.00016396523994811996
-0.00014743093003738526
-0.0001336523384451063
-0.00012814090180819475
-0.00013089662012665053
-0.0001171180285343716
-8.956084534981374e-05
-6.751509880216745e-05
-5.6492225528344285e-05
-4.2713633936065354e-05
-1.7912169069963278e-05
1.7912169069961946e-05
5.373650720988717e-05
7.30265354390777e-05
0.00011160659189745871
0.00014467521171892812
0.00016672095826657444
0.00017498811322194178
0.00017774383154039756
0.0001832552681773092
0.00019427814145113231
0.00019978957808804387
0.00018876670481422076
0.0001694766765850302
0.00015294236667429551
0.00014191949340047234
0.00013089662012664922
0.00011436231021591448
8.404940871290084e-05
5.9247943846798756e-05
4.271363393606403e-05
3.444647898069667e-05
2.066788738841773e-05
-1.377859159228559e-06
-2.066788738841907e-05
-3.4446478980697995e-05
-3.720219729915378e-05
-4.2713633936065354e-05
-5.6492225528344285e-05
-7.027081712062322e-05
-7.302653543907902e-05
-6.475938048371164e-05
-5.6492225528344285e-05
-6.475938048371164e-05
-7.57822537575348e-05
-7.302653543907902e-05
-7.027081712062322e-05
-6.200366216525588e-05
-6.200366216525588e-05
-6.751509880216745e-05
-7.85379720759906e-05
-7.302653543907902e-05
-6.200366216525588e-05
-5.6492225528344285e-05
-5.9247943846800084e-05
-5.6492225528344285e-05
-4.2713633936065354e-05
-2.8935042343786426e-05
-2.342360570687485e-05
-2.066788738841907e-05
-6.889295796140132e-06
1.2400732433050376e-05
3.169076066224089e-05
3.720219729915245e-05
3.169076066224089e-05
2.3423605706873515e-05
2.066788738841773e-05
2.066788738841773e-05
1.7912169069961946e-05
-1.377859159228559e-06
-3.720219729915378e-05
-5.9247943846800084e-05
-6.200366216525588e-05
-5.3736507209888505e-05
-6.200366216525588e-05
-7.57822537575348e-05
-8.129369039444639e-05
-7.57822537575348e-05
-7.027081712062322e-05
-7.85379720759906e-05
-8.129369039444639e-05
-7.85379720759906e-05
-7.57822537575348e-05
-7.302653543907902e-05
-6.200366216525588e-05
1.7912169069961946e-05
0.00025214822613870384
0.0006489716639963371
0.0010678408484016168
0.0013957713282978553
0.0014867100328068963
0.0012359396658274198
0.0007151089036392759
0.00019427814145113231
-0.00010885087357900426
-0.00014743093003738526
-0.0001171180285343716
-0.00010609515526054846
-9.78280003051811e-05
-9.507228198672531e-05
-0.00010333943694209268
-0.00010609515526054846
-9.78280003051811e-05
-8.680512703135793e-05
-8.129369039444639e-05
-8.680512703135793e-05
-8.404940871290214e-05
-7.57822537575348e-05
-6.751509880216745e-05
-6.200366216525588e-05
-6.200366216525588e-05
-6.475938048371164e-05
-5.6492225528344285e-05
-4.5469352254521147e-05
-3.995791561760957e-05
-3.995791561760957e-05
-4.2713633936065354e-05
-3.720219729915378e-05
-2.066788738841907e-05
-1.240073243305171e-05
-1.240073243305171e-05
-1.5156450751507488e-05
-9.64501411459592e-06
6.8892957961388014e-06
2.3423605706873515e-05
3.444647898069667e-05
3.9957915617608246e-05
5.649222552834297e-05
8.129369039444505e-05
0.00010609515526054714
0.0001253851834897376
0.00013640805676356078
0.0001556980849927513
0.00018049954985885336
0.000210812451361867
0.00023010247959105753
0.00024112535286488067
0.0002549039444571596
0.0002686825360494386
0.0002824611276417174
0.0002934840009155406
0.0002934840009155406
0.0002852168459601733
0.0002852168459601733
0.00029072828259708476
0.0002686825360494386
0.00024112535286488067
0.00021632388799877858
0.00020805673304341124
0.0001970338597695881
0.000172232394903486
0.00014191949340047234
0.00011987374685282605
0.00010885087357900291
0.00010058371862363556
8.129369039444505e-05
5.9247943846798756e-05
4.82250705729756e-05
4.546935225451981e-05
3.9957915617608246e-05
2.8935042343785094e-05
1.7912169069961946e-05
6.8892957961388014e-06
9.64501411459459e-06
1.7912169069961946e-05
1.5156450751506162e-05
1.3778591592272275e-06
-6.889295796140132e-06
-6.889295796140132e-06
-1.377859159228559e-06
1.3778591592272275e-06
-1.377859159228559e-06
1.3778591592272275e-06
1.2400732433050376e-05
2.8935042343785094e-05
3.720219729915245e-05
3.9957915617608246e-05
3.720219729915245e-05
4.546935225451981e-05
6.751509880216611e-05
9.23165636682682e-05
0.00010333943694209132
0.00010058371862363556
9.507228198672396e-05
9.782800030517979e-05
0.00010609515526054714
0.00010058371862363556
8.68051270313566e-05
7.578225375753347e-05
6.200366216525454e-05
4.82250705729756e-05
3.169076066224089e-05
1.5156450751506162e-05
-1.377859159228559e-06
-4.133577477684346e-06
1.3778591592272275e-06
4.133577477683014e-06
-1.377859159228559e-06
-1.5156450751507488e-05
-1.240073243305171e-05
-4.133577477684346e-06
-1.377859159228559e-06
-9.64501411459592e-06
-1.7912169069963278e-05
-6.889295796140132e-06
3.9957915617608246e-05
0.00016120952162966288
0.0004064684519722279
0.0007619561150530243
0.0011174437781338207
0.0013434126802471958
0.000985169298847943
0.0004891400015259016
9.23165636682682e-05
-6.200366216525588e-05
-4.2713633936065354e-05
-3.720219729915378e-05
-5.098078889143272e-05
-5.9247943846800084e-05
-5.9247943846800084e-05
-5.098078889143272e-05
-4.8225070572976926e-05
-5.3736507209888505e-05
-6.475938048371164e-05
-5.6492225528344285e-05
-3.995791561760957e-05
-3.4446478980697995e-05
-3.720219729915378e-05
-4.2713633936065354e-05
-4.2713633936065354e-05
-3.169076066224221e-05
-2.342360570687485e-05
-2.6179324025330647e-05
-3.169076066224221e-05
-3.169076066224221e-05
-1.7912169069963278e-05
-9.64501411459592e-06
-6.889295796140132e-06
-9.64501411459592e-06
-4.133577477684346e-06
9.64501411459459e-06
2.3423605706873515e-05
2.8935042343785094e-05
2.8935042343785094e-05
3.444647898069667e-05
5.098078889143139e-05
7.853797207598924e-05
9.23165636682682e-05
9.782800030517979e-05
0.00010885087357900291
0.0001253851834897376
0.0001556980849927513
0.00017498811322194178
0.0001832552681773092
0.00019152242313267648
0.00020530101472495543
0.00023010247959105753
0.00024388107118333642
0.00024388107118333642
0.00024388107118333642
0.00024388107118333642
0.0002493925078202481
0.00025214822613870384
0.0002383696345464249
0.0002190796063172344
0.00020254529640649968
0.00019152242313267648
0.0001832552681773092
0.00016396523994811866
0.00013365233844510492
0.00010885087357900291
9.782800030517979e-05
9.23165636682682e-05
7.578225375753347e-05
5.649222552834297e-05
3.169076066224089e-05
2.8935042343785094e-05
2.3423605706873515e-05
1.2400732433050376e-05
-1.377859159228559e-06
-4.133577477684346e-06
1.3778591592272275e-06
4.133577477683014e-06
-6.889295796140132e-06
-1.7912169069963278e-05
-1.7912169069963278e-05
-9.64501411459592e-06
-6.889295796140132e-06
-9.64501411459592e-06
-2.342360570687485e-05
-2.066788738841907e-05
-6.889295796140132e-06
4.133577477683014e-06
1.3778591592272275e-06
-4.133577477684346e-06
-1.377859159228559e-06
4.133577477683014e-06
1.5156450751506162e-05
2.6179324025329308e-05
3.444647898069667e-05
4.271363393606403e-05
5.098078889143139e-05
5.649222552834297e-05
5.373650720988717e-05
4.271363393606403e-05
2.8935042343785094e-05
2.3423605706873515e-05
2.066788738841773e-05
1.3778591592272275e-06
-2.6179324025330647e-05
-4.8225070572976926e-05
-5.3736507209888505e-05
-5.098078889143272e-05
-4.8225070572976926e-05
-5.9247943846800084e-05
-6.751509880216745e-05
-6.751509880216745e-05
-6.200366216525588e-05
-5.9247943846800084e-05
-6.200366216525588e-05
-7.027081712062322e-05
-7.302653543907902e-05
-6.475938048371164e-05
-4.5469352254521147e-05
-6.889295796140132e-06
0.00011987374685282605
0.000392689860379949
0.0007784904249637591
0.0011477566796368347
0.001379237018387121
0.0013268783703364606
0.0009548563973449294
0.0004450485084306089
3.720219729915245e-05
-0.0001171180285343716
-0.00011160659189746003
-0.0001171180285343716
-0.0001226294651712832
-0.0001171180285343716
-0.00011160659189746003
-0.0001226294651712832
-0.0001198737468528274
-0.00010885087357900426
-9.78280003051811e-05
-9.78280003051811e-05
-0.00010333943694209268
-0.00010333943694209268
-9.231656366826955e-05
-7.85379720759906e-05
-7.302653543907902e-05
-8.129369039444639e-05
-8.129369039444639e-05
-6.751509880216745e-05
-5.3736507209888505e-05
-4.8225070572976926e-05
-5.3736507209888505e-05
-5.3736507209888505e-05
-4.2713633936065354e-05
-2.6179324025330647e-05
-1.7912169069963278e-05
-1.7912169069963278e-05
-1.5156450751507488e-05
-1.377859159228559e-06
1.7912169069961946e-05
3.444647898069667e-05
4.546935225451981e-05
4.82250705729756e-05
6.751509880216611e-05
9.507228198672396e-05
0.00012262946517128183
0.00013916377508201656
0.00015294236667429551
0.000172232394903486
0.00019427814145113231
0.00021632388799877858
0.00022734676127260172
0.00023285819790951333
0.00024112535286488067
0.0002549039444571596
0.000263171099412527
0.00026041538109407124
0.0002493925078202481
0.00023561391622796914
0.00023010247959105753
0.00023010247959105753
0.00021632388799877858
0.00018876670481422076
0.00016120952162966288
0.00014191949340047234
0.00012814090180819342
0.00010885087357900291
8.129369039444505e-05
5.649222552834297e-05
3.444647898069667e-05
2.8935042343785094e-05
2.066788738841773e-05
4.133577477683014e-06
-1.7912169069963278e-05
-2.8935042343786426e-05
-2.8935042343786426e-05
-2.8935042343786426e-05
-3.720219729915378e-05
-4.8225070572976926e-05
-5.6492225528344285e-05
-5.3736507209888505e-05
-5.098078889143272e-05
-7.57822537575348e-05
-7.85379720759906e-05
-7.302653543907902e-05
-6.200366216525588e-05
-5.6492225528344285e-05
-5.9247943846800084e-05
-5.9247943846800084e-05
-4.8225070572976926e-05
-3.169076066224221e-05
-2.6179324025330647e-05
-3.169076066224221e-05
-2.8935042343786426e-05
-6.889295796140132e-06
2.066788738841773e-05
3.169076066224089e-05
2.8935042343785094e-05
2.066788738841773e-05
2.3423605706873515e-05
2.3423605706873515e-05
2.3423605706873515e-05
1.2400732433050376e-05
-9.64501411459592e-06
-3.4446478980697995e-05
-4.2713633936065354e-05
-4.8225070572976926e-05
-5.6492225528344285e-05
-6.751509880216745e-05
-7.302653543907902e-05
-6.751509880216745e-05
-6.200366216525588e-05
-6.200366216525588e-05
-7.027081712062322e-05
-7.57822537575348e-05
-7.027081712062322e-05
-6.475938048371164e-05
-6.751509880216745e-05
-7.027081712062322e-05
-5.9247943846800084e-05
2.3423605706873515e-05
0.00024388107118333642
0.0006324373540856024
0.0010843751583123511
0.001453641412985427
0.0015776487373159373
0.0013158554970626377
0.0007647118333714802
0.0002190796063172344
-9.231656366826955e-05
-0.00013089662012665053
-0.00011436231021591582
-0.0001171180285343716
-0.00012538518348973897
-0.0001336523384451063
-0.0001391637750820179
-0.00013089662012665053
-0.0001198737468528274
-0.00011436231021591582
-0.0001198737468528274
-0.0001198737468528274
-0.00010885087357900426
-9.78280003051811e-05
-9.231656366826955e-05
-9.507228198672531e-05
-0.00010058371862363688
-9.231656366826955e-05
-7.57822537575348e-05
-7.57822537575348e-05
-7.57822537575348e-05
-7.027081712062322e-05
-5.6492225528344285e-05
-4.5469352254521147e-05
-4.2713633936065354e-05
-4.5469352254521147e-05
-3.720219729915378e-05
-2.066788738841907e-05
-6.889295796140132e-06
1.3778591592272275e-06
9.64501411459459e-06
2.6179324025329308e-05
5.098078889143139e-05
7.578225375753347e-05
8.956084534981241e-05
0.00010333943694209132
0.00012262946517128183
0.00015294236667429551
0.00017774383154039756
0.0001970338597695881
0.00020530101472495543
0.0002135681696803228
0.00023561391622796914
0.0002493925078202481
0.00025214822613870384
0.00024663678950179223
0.00024112535286488067
0.00024112535286488067
0.00024388107118333642
0.00023285819790951333
0.0002135681696803228
0.00018601098649576498
0.00016396523994811866
0.0001556980849927513
0.00014191949340047234
0.00011160659189745871
8.129369039444505e-05
5.373650720988717e-05
4.546935225451981e-05
3.444647898069667e-05
1.5156450751506162e-05
-9.64501411459592e-06
-2.6179324025330647e-05
-2.8935042343786426e-05
-2.8935042343786426e-05
-3.720219729915378e-05
-5.3736507209888505e-05
-6.475938048371164e-05
-5.9247943846800084e-05
-5.6492225528344285e-05
-6.200366216525588e-05
-7.57822537575348e-05
-8.129369039444639e-05
-8.129369039444639e-05
-7.57822537575348e-05
-7.57822537575348e-05
-8.129369039444639e-05
-8.404940871290214e-05
-7.85379720759906e-05
-6.475938048371164e-05
-5.6492225528344285e-05
-5.3736507209888505e-05
-5.6492225528344285e-05
-3.720219729915378e-05
-1.5156450751507488e-05
4.133577477683014e-06
1.2400732433050376e-05
1.7912169069961946e-05
3.169076066224089e-05
3.9957915617608246e-05
3.169076066224089e-05
1.7912169069961946e-05
9.64501411459459e-06
4.133577477683014e-06
-6.889295796140132e-06
-2.6179324025330647e-05
-4.8225070572976926e-05
-6.200366216525588e-05
-6.200366216525588e-05
-5.6492225528344285e-05
-5.9247943846800084e-05
-7.027081712062322e-05
-7.57822537575348e-05
-7.302653543907902e-05
-6.200366216525588e-05
-5.6492225528344285e-05
-6.475938048371164e-05
-7.85379720759906e-05
-8.129369039444639e-05
-7.57822537575348e-05
-5.3736507209888505e-05
3.169076066224089e-05
0.0002824611276417174
0.0007233760585946433
0.0012386953841458756
0.0016492974135957881
0.0017512589913786518
0.0014205727931639574
0.0007922690165560381
0.00020530101472495543
-8.956084534981374e-05
-0.0001171180285343716
-0.0001198737468528274
-0.0001364080567635621
-0.0001336523384451063
-0.00012814090180819475
-0.00012538518348973897
-0.0001336523384451063
-0.0001391637750820179
-0.00013089662012665053
-0.0001198737468528274
-0.0001171180285343716
-0.0001198737468528274
-0.00012538518348973897
-0.0001198737468528274
-0.00010885087357900426
-0.00010058371862363688
-0.00010058371862363688
-0.00010333943694209268
-0.00010058371862363688
-8.956084534981374e-05
-7.302653543907902e-05
-6.751509880216745e-05
-7.027081712062322e-05
-6.475938048371164e-05
-5.098078889143272e-05
-3.4446478980697995e-05
-2.8935042343786426e-05
-2.066788738841907e-05
-4.133577477684346e-06
1.7912169069961946e-05
3.444647898069667e-05
4.271363393606403e-05
5.649222552834297e-05
8.404940871290084e-05
0.00011711802853437029
0.00013916377508201656
0.00015018664835583973
0.00016672095826657444
0.00019152242313267648
0.0002190796063172344
0.00024112535286488067
0.0002493925078202481
0.0002549039444571596
0.00026592681773098274
0.0002852168459601733
0.0002824611276417174
0.0002549039444571596
0.000210812451361867
0.00017498811322194178
0.0001694766765850302
0.00017774383154039756
0.00018049954985885336
0.00017774383154039756
0.000172232394903486
0.00015294236667429551
0.0001253851834897376
9.507228198672396e-05
6.200366216525454e-05
2.8935042343785094e-05
4.133577477683014e-06
-1.7912169069963278e-05
-4.5469352254521147e-05
-8.404940871290214e-05
-0.00011436231021591582
-0.00013089662012665053
-0.0001336523384451063
-0.0001391637750820179
-0.00014743093003738526
-0.00015569808499275262
-0.0001584538033112084
-0.000150186648355841
-0.000150186648355841
-0.00015569808499275262
-0.00016396523994811996
-0.00016396523994811996
-0.0001584538033112084
-0.000150186648355841
-0.00014467521171892948
-0.000150186648355841
-0.00014467521171892948
-0.00012814090180819475
-0.00011436231021591582
-0.00011160659189746003
-0.0001171180285343716
-0.0001171180285343716
-9.78280003051811e-05
-7.302653543907902e-05
-6.200366216525588e-05
-6.475938048371164e-05
-7.57822537575348e-05
-7.57822537575348e-05
-7.027081712062322e-05
-0.00010609515526054846
-0.0001364080567635621
-0.0001584538033112084
-0.00017223239490348733
-0.00018049954985885472
-0.00019703385976958942
-0.00021356816968032413
-0.00021356816968032413
-0.00020254529640650095
-0.0001997895780880452
-0.00019703385976958942
-0.00020254529640650095
-0.00020254529640650095
-0.00019152242313267784
-0.0001777438315403989
-0.0001777438315403989
-0.00018601098649576628
-0.00018049954985885472
-0.000150186648355841
-1.7912169069963278e-05
0.0002852168459601733
0.0007564446784161128
0.0012414511024643313
0.0015914273289082165
0.0015941830472266717
0.0011394895246814672
0.0004395370717936973
-0.0001171180285343716
-0.00030726259250782084
-0.0002549039444571609
-0.00021632388799877996
-0.0002218353246356915
-0.0002218353246356915
-0.00021356816968032413
-0.00020530101472495681
-0.00019703385976958942
-0.00019427814145113364
-0.00019703385976958942
-0.00019152242313267784
-0.0001777438315403989
-0.0001612095216296642
-0.0001584538033112084
-0.0001584538033112084
-0.00015569808499275262
-0.00014191949340047367
-0.00013089662012665053
-0.00012538518348973897
-0.0001226294651712832
-0.0001198737468528274
-0.00010609515526054846
-8.956084534981374e-05
-8.129369039444639e-05
-8.129369039444639e-05
-7.85379720759906e-05
-6.751509880216745e-05
-5.098078889143272e-05
-3.995791561760957e-05
-3.995791561760957e-05
-3.995791561760957e-05
-2.6179324025330647e-05
1.3778591592272275e-06
2.066788738841773e-05
2.8935042343785094e-05
3.444647898069667e-05
5.373650720988717e-05
7.853797207598924e-05
0.00011711802853437029
0.0001253851834897376
0.00014467521171892812
0.00016672095826657444
0.00017498811322194178
0.00017498811322194178
0.00017498811322194178
0.0001694766765850302
0.0001694766765850302
0.00017498811322194178
0.00016396523994811866
0.00014191949340047234
0.00011987374685282605
9.782800030517979e-05
8.404940871290084e-05
6.200366216525454e-05
2.6179324025329308e-05
-6.889295796140132e-06
-2.6179324025330647e-05
-3.995791561760957e-05
-5.9247943846800084e-05
-8.680512703135793e-05
-0.00011436231021591582
-0.0001336523384451063
-0.0001364080567635621
-0.0001391637750820179
-0.00015569808499275262
-0.00017223239490348733
-0.00018325526817731047
-0.0001777438315403989
-0.00017498811322194308
-0.00018325526817731047
-0.00019427814145113364
-0.00020254529640650095
-0.0001997895780880452
-0.00019703385976958942
-0.0001997895780880452
-0.0002108124513618684
-0.0002190796063172357
-0.00021356816968032413
-0.00019427814145113364
-0.00018601098649576628
-0.00018876670481422206
-0.00019152242313267784
-0.00018049954985885472
-0.00016672095826657574
-0.00015569808499275262
-0.00015294236667429682
-0.00014191949340047367
-0.0001171180285343716
-9.78280003051811e-05
-9.231656366826955e-05
-0.00010058371862363688
-0.00010885087357900426
-0.00010609515526054846
-0.00010058371862363688
-9.78280003051811e-05
-0.00011436231021591582
-0.00014743093003738526
-0.00016672095826657574
-0.00017223239490348733
-0.00016947667658503157
-0.0001777438315403989
-0.00019152242313267784
-0.00019703385976958942
-0.00017498811322194308
-0.00017223239490348733
-0.00018325526817731047
-0.00019427814145113364
-0.00018876670481422206
-0.0001777438315403989
-0.00017498811322194308
-0.00017498811322194308
-0.0001364080567635621
3.444647898069667e-05
0.0003816669871061258
0.0008225819180590517
0.0012083824826428621
0.0014178170748455018
0.0013020769054703587
0.0008446276646066979
0.0002741939726863501
-0.00014191949340047367
-0.0002686825360494398
-0.00024939250782024937
-0.00023561391622797047
-0.00023010247959105888
-0.00023010247959105888
-0.00024112535286488197
-0.00024939250782024937
-0.00024112535286488197
-0.00022734676127260308
-0.0002218353246356915
-0.00022734676127260308
-0.00022734676127260308
-0.00021356816968032413
-0.0001997895780880452
-0.0001997895780880452
-0.00020530101472495681
-0.0002080567330434125
-0.00020254529640650095
-0.00019152242313267784
-0.00018325526817731047
-0.00018601098649576628
-0.00018876670481422206
-0.00018325526817731047
-0.00017223239490348733
-0.0001612095216296642
-0.00016396523994811996
-0.00016672095826657574
-0.0001584538033112084
-0.00014191949340047367
-0.00012814090180819475
-0.0001198737468528274
-0.0001198737468528274
-0.00011160659189746003
-8.404940871290214e-05
-5.6492225528344285e-05
-3.995791561760957e-05
-2.8935042343786426e-05
-9.64501411459592e-06
1.7912169069961946e-05
5.098078889143139e-05
7.02708171206219e-05
7.853797207598924e-05
8.956084534981241e-05
0.00010609515526054714
0.00012262946517128183
0.00013089662012664922
0.00012814090180819342
0.00011987374685282605
0.0001253851834897376
0.00011987374685282605
9.782800030517979e-05
6.751509880216611e-05
4.546935225451981e-05
3.169076066224089e-05
1.2400732433050376e-05
-1.5156450751507488e-05
-4.8225070572976926e-05
-7.027081712062322e-05
-7.85379720759906e-05
-9.231656366826955e-05
-0.00011436231021591582
-0.0001364080567635621
-0.00015294236667429682
-0.00015569808499275262
-0.00015569808499275262
-0.00016672095826657574
-0.00018601098649576628
-0.00019703385976958942
-0.00019703385976958942
-0.00019152242313267784
-0.00018876670481422206
-0.00020530101472495681
-0.00021632388799877996
-0.00021632388799877996
-0.0002080567330434125
-0.0002080567330434125
-0.00021356816968032413
-0.00021356816968032413
-0.0002080567330434125
-0.00019427814145113364
-0.00018325526817731047
-0.00018601098649576628
-0.00018876670481422206
-0.00018325526817731047
-0.0001612095216296642
-0.0001364080567635621
-0.00012538518348973897
-0.00012814090180819475
-0.0001364080567635621
-0.00012814090180819475
-0.0001226294651712832
-0.00012814090180819475
-0.00014467521171892948
-0.0001584538033112084
-0.00016947667658503157
-0.00018049954985885472
-0.00019427814145113364
-0.00021356816968032413
-0.00022459104295414727
-0.00022459104295414727
-0.00021356816968032413
-0.0002108124513618684
-0.0002190796063172357
-0.00023010247959105888
-0.00023010247959105888
-0.0002190796063172357
-0.0002080567330434125
-0.00021632388799877996
-0.00022734676127260308
-0.0002218353246356915
-0.0001777438315403989
-5.3736507209888505e-05
0.0005745672693980309
0.000960367833981841
0.0012276725108720525
0.0012276725108720525
0.0008776962844281674
0.0003375754940108332
-0.00011436231021591582
-0.00029348400091554195
-0.00027694969100480727
-0.00026592681773098404
-0.00027694969100480727
-0.0002824611276417188
-0.00027694969100480727
-0.0002686825360494398
-0.0002631710994125282
-0.0002686825360494398
-0.00027694969100480727
-0.0002686825360494398
-0.0002549039444571609
-0.0002466367895017936
-0.00024939250782024937
-0.0002549039444571609
-0.0002521482261387052
-0.00023836963454642628
-0.00023285819790951464
-0.00023285819790951464
-0.00023836963454642628
-0.00023285819790951464
-0.0002218353246356915
-0.00021356816968032413
-0.00021632388799877996
-0.00021632388799877996
-0.00021356816968032413
-0.0001997895780880452
-0.00018601098649576628
-0.0001777438315403989
-0.0001777438315403989
-0.00017223239490348733
-0.00015569808499275262
-0.0001336523384451063
-0.00011436231021591582
-0.00010609515526054846
-9.507228198672531e-05
-7.027081712062322e-05
-3.720219729915378e-05
-9.64501411459592e-06
1.3778591592272275e-06
9.64501411459459e-06
2.6179324025329308e-05
4.82250705729756e-05
6.751509880216611e-05
7.30265354390777e-05
6.751509880216611e-05
6.751509880216611e-05
7.853797207598924e-05
7.853797207598924e-05
7.30265354390777e-05
5.649222552834297e-05
3.9957915617608246e-05
3.169076066224089e-05
1.7912169069961946e-05
-4.133577477684346e-06
-3.169076066224221e-05
-5.6492225528344285e-05
-7.302653543907902e-05
-8.129369039444639e-05
-0.0001198737468528274
-0.0001391637750820179
-0.00014743093003738526
-0.00014467521171892948
-0.00015294236667429682
-0.00016947667658503157
-0.00018049954985885472
-0.00018325526817731047
-0.00017498811322194308
-0.00017498811322194308
-0.00018325526817731047
-0.00018876670481422206
-0.00019152242313267784
-0.00018601098649576628
-0.00018049954985885472
-0.00018325526817731047
-0.00019152242313267784
-0.00018325526817731047
-0.00016672095826657574
-0.000150186648355841
-0.000150186648355841
-0.000150186648355841
-0.000150186648355841
-0.00014467521171892948
-0.00012814090180819475
-0.00011160659189746003
-0.00010058371862363688
-8.956084534981374e-05
-8.129369039444639e-05
-7.302653543907902e-05
-7.027081712062322e-05
-7.85379720759906e-05
-9.231656366826955e-05
-9.507228198672531e-05
-9.231656366826955e-05
-0.00010885087357900426
-0.0001364080567635621
-0.00015569808499275262
-0.0001612095216296642
-0.0001584538033112084
-0.00015569808499275262
-0.0001612095216296642
-0.00016947667658503157
-0.00016947667658503157
-0.0001584538033112084
-0.00014743093003738526
-0.00014743093003738526
-0.0001584538033112084
-0.00016396523994811996
-0.00015569808499275262
-0.0001364080567635621
-9.78280003051811e-05
2.8935042343785094e-05
0.000315529747463187
0.0007399103685053779
0.001169802426184481
0.0014426185397116034
0.0013930156099793995
0.0009769021438925758
0.00041749132524605104
-6.889295796140132e-06
-0.00017223239490348733
-0.00018325526817731047
-0.00019427814145113364
-0.00019703385976958942
-0.00018601098649576628
-0.00019152242313267784
-0.0001997895780880452
-0.00019427814145113364
-0.00018325526817731047
-0.00016947667658503157
-0.00016947667658503157
-0.00017498811322194308
-0.00017223239490348733
-0.0001612095216296642
-0.000150186648355841
-0.00014743093003738526
-0.000150186648355841
-0.00014743093003738526
-0.0001391637750820179
-0.00013089662012665053
-0.00012538518348973897
-0.00012814090180819475
-0.00012538518348973897
-0.00011160659189746003
-9.507228198672531e-05
-8.680512703135793e-05
-8.680512703135793e-05
-8.129369039444639e-05
-6.475938048371164e-05
-4.2713633936065354e-05
-2.6179324025330647e-05
-1.7912169069963278e-05
-9.64501411459592e-06
1.2400732433050376e-05
4.271363393606403e-05
6.475938048371032e-05
8.129369039444505e-05
9.782800030517979e-05
0.00011711802853437029
0.00014743093003738393
0.000172232394903486
0.00018601098649576498
0.00018876670481422076
0.00019152242313267648
0.00020530101472495543
0.00021632388799877858
0.00021632388799877858
0.00020530101472495543
0.0001970338597695881
0.00019152242313267648
0.00018601098649576498
0.00016672095826657444
0.00013640805676356078
0.00010885087357900291
8.956084534981241e-05
7.578225375753347e-05
5.649222552834297e-05
2.6179324025329308e-05
-1.377859159228559e-06
-1.240073243305171e-05
-2.066788738841907e-05
-3.4446478980697995e-05
-5.098078889143272e-05
-6.751509880216745e-05
-7.027081712062322e-05
-7.027081712062322e-05
-7.027081712062322e-05
-7.85379720759906e-05
-8.956084534981374e-05
-8.680512703135793e-05
-8.404940871290214e-05
-9.231656366826955e-05
-9.78280003051811e-05
-0.00010333943694209268
-9.231656366826955e-05
-8.129369039444639e-05
-7.302653543907902e-05
-7.57822537575348e-05
-7.302653543907902e-05
-6.200366216525588e-05
-5.3736507209888505e-05
-4.5469352254521147e-05
-3.720219729915378e-05
-2.342360570687485e-05
-1.377859159228559e-06
1.5156450751506162e-05
1.2400732433050376e-05
9.64501411459459e-06
6.8892957961388014e-06
4.133577477683014e-06
6.8892957961388014e-06
1.3778591592272275e-06
-2.066788738841907e-05
-5.098078889143272e-05
-6.475938048371164e-05
-6.200366216525588e-05
-6.475938048371164e-05
-7.302653543907902e-05
-8.404940871290214e-05
-8.956084534981374e-05
-7.85379720759906e-05
-6.751509880216745e-05
-6.751509880216745e-05
-7.302653543907902e-05
-7.85379720759906e-05
-7.302653543907902e-05
-7.027081712062322e-05
-6.751509880216745e-05
-5.6492225528344285e-05
4.271363393606403e-05
0.00032104118410009855
0.0007812461432822147
0.0012827868772411677
0.001660320286869611
0.0017181903715571825
0.0013516798352025624
0.0007261317769130989
0.00016672095826657444
-0.00010609515526054846
-0.00012538518348973897
-0.0001171180285343716
-0.0001198737468528274
-0.0001198737468528274
-0.00012814090180819475
-0.0001336523384451063
-0.00012814090180819475
-0.0001171180285343716
-0.00011160659189746003
-0.00010885087357900426
-0.00011436231021591582
-0.00011436231021591582
-0.00010058371862363688
-8.680512703135793e-05
-8.129369039444639e-05
-9.231656366826955e-05
-8.129369039444639e-05
-6.751509880216745e-05
-5.9247943846800084e-05
-6.200366216525588e-05
-6.751509880216745e-05
-5.9247943846800084e-05
-4.5469352254521147e-05
-3.4446478980697995e-05
-3.169076066224221e-05
-2.6179324025330647e-05
-1.240073243305171e-05
4.133577477683014e-06
2.066788738841773e-05
2.8935042343785094e-05
3.9957915617608246e-05
5.649222552834297e-05
8.404940871290084e-05
0.00011160659189745871
0.00013089662012664922
0.00015018664835583973
0.0001694766765850302
0.0001970338597695881
0.00022734676127260172
0.00024663678950179223
0.0002493925078202481
0.0002576596627756154
0.0002741939726863501
0.0002879725642786291
0.0002934840009155406
0.0002824611276417174
0.00027143825436789435
0.00027143825436789435
0.00026592681773098274
0.00025214822613870384
0.00022734676127260172
0.00019427814145113231
0.000172232394903486
0.00015845380331120705
0.00013640805676356078
0.00010609515526054714
7.30265354390777e-05
5.373650720988717e-05
4.271363393606403e-05
3.169076066224089e-05
1.2400732433050376e-05
-1.240073243305171e-05
-2.342360570687485e-05
-2.066788738841907e-05
-2.342360570687485e-05
-3.4446478980697995e-05
-4.5469352254521147e-05
-5.3736507209888505e-05
-5.098078889143272e-05
-4.8225070572976926e-05
-5.3736507209888505e-05
-6.475938048371164e-05
-7.302653543907902e-05
-7.302653543907902e-05
-6.200366216525588e-05
-5.3736507209888505e-05
-5.9247943846800084e-05
-6.475938048371164e-05
-5.6492225528344285e-05
-4.2713633936065354e-05
-3.995791561760957e-05
-3.4446478980697995e-05
-9.64501411459592e-06
1.7912169069961946e-05
3.444647898069667e-05
3.169076066224089e-05
2.6179324025329308e-05
2.6179324025329308e-05
3.169076066224089e-05
2.8935042343785094e-05
1.7912169069961946e-05
-4.133577477684346e-06
-2.8935042343786426e-05
-3.995791561760957e-05
-4.5469352254521147e-05
-5.6492225528344285e-05
-7.027081712062322e-05
-7.302653543907902e-05
-6.751509880216745e-05
-5.9247943846800084e-05
-5.6492225528344285e-05
-6.475938048371164e-05
-6.751509880216745e-05
-6.475938048371164e-05
-5.6492225528344285e-05
-6.200366216525588e-05
-7.302653543907902e-05
-7.302653543907902e-05
-2.342360570687485e-05
0.00017774383154039756
0.0005773229877164866
0.0011009094682230861
0.0015969387655451277
0.0018725105973907065
0.0017402361181048285
0.001178069581139848
0.00048362856488898997
1.3778591592272275e-06
-0.0001226294651712832
-0.00010333943694209268
-0.00010885087357900426
-0.0001226294651712832
-0.0001336523384451063
-0.0001364080567635621
-0.00012814090180819475
-0.0001226294651712832
-0.0001198737468528274
-0.0001226294651712832
-0.00012538518348973897
-0.00011436231021591582
-0.00010333943694209268
-9.78280003051811e-05
-0.00010058371862363688
-0.00010333943694209268
-0.00010058371862363688
-8.680512703135793e-05
-7.85379720759906e-05
-7.85379720759906e-05
-8.129369039444639e-05
-7.85379720759906e-05
-5.9247943846800084e-05
-4.5469352254521147e-05
-4.5469352254521147e-05
-4.5469352254521147e-05
-3.720219729915378e-05
-2.066788738841907e-05
4.133577477683014e-06
6.8892957961388014e-06
2.066788738841773e-05
4.546935225451981e-05
7.02708171206219e-05
8.956084534981241e-05
0.00010609515526054714
0.00012262946517128183
0.0001556980849927513
0.00018876670481422076
0.0002135681696803228
0.00023010247959105753
0.00024112535286488067
0.000263171099412527
0.0002852168459601733
0.0002989954375524522
0.0002989954375524522
0.0002934840009155406
0.0002989954375524522
0.00031001831082627527
0.0003072625925078196
0.0002852168459601733
0.0002576596627756154
0.00023561391622796914
0.00021632388799877858
0.00019427814145113231
0.00016672095826657444
0.00013089662012664922
0.00010333943694209132
8.956084534981241e-05
7.578225375753347e-05
5.098078889143139e-05
2.066788738841773e-05
-1.377859159228559e-06
-6.889295796140132e-06
-6.889295796140132e-06
-1.240073243305171e-05
-2.8935042343786426e-05
-4.2713633936065354e-05
-3.995791561760957e-05
-3.4446478980697995e-05
-3.995791561760957e-05
-5.6492225528344285e-05
-6.751509880216745e-05
-6.475938048371164e-05
-5.6492225528344285e-05
-5.6492225528344285e-05
-5.9247943846800084e-05
-6.200366216525588e-05
-5.3736507209888505e-05
-4.2713633936065354e-05
-3.720219729915378e-05
-4.2713633936065354e-05
-4.5469352254521147e-05
-3.4446478980697995e-05
-1.240073243305171e-05
4.133577477683014e-06
-4.133577477684346e-06
-1.7912169069963278e-05
-2.8935042343786426e-05
-1.7912169069963278e-05
1.5156450751506162e-05
2.8935042343785094e-05
2.8935042343785094e-05
2.066788738841773e-05
-2.6179324025330647e-05
-4.5469352254521147e-05
-6.200366216525588e-05
-7.027081712062322e-05
-7.85379720759906e-05
-8.404940871290214e-05
-9.78280003051811e-05
-0.0001198737468528274
-0.0001391637750820179
-0.00014743093003738526
-0.00014743093003738526
-0.00015294236667429682
-0.00016947667658503157
-0.00018049954985885472
-0.00017498811322194308
-0.00014191949340047367
-2.066788738841907e-05
0.0002741939726863501
0.0007509332417792012
0.0012497182574196988
0.001607961638818951
0.001630007385366597
0.0011753138628213923
0.0004588271000228878
-0.00010885087357900426
-0.0003155297474631883
-0.00026592681773098404
-0.0002218353246356915
-0.0002218353246356915
-0.0002218353246356915
-0.0002108124513618684
-0.0001997895780880452
-0.0001997895780880452
-0.00021356816968032413
-0.00022459104295414727
-0.00022459104295414727
-0.00021632388799877996
-0.00021356816968032413
-0.0002190796063172357
-0.00022459104295414727
-0.0002190796063172357
-0.00020530101472495681
-0.00019427814145113364
-0.0001997895780880452
-0.0002080567330434125
-0.00020254529640650095
-0.00018601098649576628
-0.00016672095826657574
-0.0001584538033112084
-0.0001584538033112084
-0.00014743093003738526
-0.0001226294651712832
-0.00010333943694209268
-9.507228198672531e-05
-8.680512703135793e-05
-7.302653543907902e-05
-4.2713633936065354e-05
-9.64501411459592e-06
1.2400732433050376e-05
2.066788738841773e-05
3.720219729915245e-05
6.475938048371032e-05
9.782800030517979e-05
0.00012814090180819342
0.00014467521171892812
0.00017774383154039756
0.00020254529640649968
0.0002218353246356902
0.00022459104295414594
0.0002218353246356902
0.00022734676127260172
0.0002383696345464249
0.00024112535286488067
0.00023285819790951333
0.000210812451361867
0.00018876670481422076
0.000172232394903486
0.00015294236667429551
0.00012814090180819342
0.00010058371862363556
7.853797207598924e-05
6.475938048371032e-05
6.200366216525454e-05
5.649222552834297e-05
4.82250705729756e-05
5.098078889143139e-05
5.9247943846798756e-05
5.098078889143139e-05
3.9957915617608246e-05
2.066788738841773e-05
1.3778591592272275e-06
-1.240073243305171e-05
-1.5156450751507488e-05
-2.342360570687485e-05
-4.5469352254521147e-05
-7.85379720759906e-05
-9.507228198672531e-05
-9.507228198672531e-05
-9.507228198672531e-05
-0.00010333943694209268
-0.0001171180285343716
-0.0001226294651712832
-0.0001171180285343716
-0.00011436231021591582
-0.0001198737468528274
-0.00013089662012665053
-0.0001364080567635621
-0.00012814090180819475
-0.0001198737468528274
-0.00012814090180819475
-0.0001364080567635621
-0.00010885087357900426
-1.7912169069963278e-05
0.000210812451361867
0.0006296816357671465
0.0011201994964522765
0.0014867100328068963
0.0015941830472266717
0.001244206820782787
0.0004918957198443572
-0.00018325526817731047
-0.00039268986037995033
-0.00030175115587090934
-0.0002218353246356915
-0.00020254529640650095
-0.0002080567330434125
-0.00021632388799877996
-0.0002080567330434125
-0.00019703385976958942
-0.00019152242313267784
-0.00020254529640650095
-0.00020254529640650095
-0.00019427814145113364
-0.0001777438315403989
-0.00017498811322194308
-0.00018325526817731047
-0.00018049954985885472
-0.00016947667658503157
-0.00015569808499275262
-0.00015294236667429682
-0.0001584538033112084
-0.0001584538033112084
-0.00014467521171892948
-0.00012538518348973897
-0.0001198737468528274
-0.0001198737468528274
-0.0001171180285343716
-0.00010333943694209268
-7.85379720759906e-05
-6.200366216525588e-05
-5.3736507209888505e-05
-4.8225070572976926e-05
-3.169076066224221e-05
-4.133577477684346e-06
2.3423605706873515e-05
3.9957915617608246e-05
5.373650720988717e-05
8.129369039444505e-05
0.00011436231021591448
0.00014467521171892812
0.00016120952162966288
0.0001694766765850302
0.00018049954985885336
0.0001970338597695881
0.00020805673304341124
0.0002135681696803228
0.00020530101472495543
0.00019427814145113231
0.00019427814145113231
0.0001970338597695881
0.00017774383154039756
0.00014743093003738393
0.00011711802853437029
9.507228198672396e-05
7.578225375753347e-05
4.546935225451981e-05
9.64501411459459e-06
-2.342360570687485e-05
-4.2713633936065354e-05
-5.6492225528344285e-05
-7.302653543907902e-05
-9.507228198672531e-05
-0.0001171180285343716
-0.00013089662012665053
-0.0001336523384451063
-0.0001364080567635621
-0.00014743093003738526
-0.0001612095216296642
-0.00016396523994811996
-0.00015569808499275262
-0.00015294236667429682
-0.00015569808499275262
-0.0001612095216296642
-0.0001612095216296642
-0.00015294236667429682
-0.00014467521171892948
-0.00014191949340047367
-0.00014191949340047367
-0.0001336523384451063
-0.0001226294651712832
-0.0001198737468528274
-0.0001226294651712832
-0.00012538518348973897
-0.0001198737468528274
-0.00010885087357900426
-0.00010609515526054846
-0.00011160659189746003
-0.0001198737468528274
-0.00011436231021591582
-0.00010333943694209268
-0.00010058371862363688
-0.00010885087357900426
-0.00011436231021591582
-0.00011160659189746003
-0.00010058371862363688
-8.680512703135793e-05
-8.404940871290214e-05
-9.231656366826955e-05
-9.78280003051811e-05
-8.129369039444639e-05
-5.9247943846800084e-05
-4.8225070572976926e-05
-4.5469352254521147e-05
-4.8225070572976926e-05
-4.5469352254521147e-05
-4.2713633936065354e-05
-5.3736507209888505e-05
-7.57822537575348e-05
-9.507228198672531e-05
-0.00011160659189746003
-0.00012538518348973897
-0.0001364080567635621
-0.00015569808499275262
-0.00016947667658503157
-0.00017223239490348733
-0.00016396523994811996
-0.0001584538033112084
-0.00016396523994811996
-0.00017223239490348733
-0.00017223239490348733
-0.00016672095826657574
-0.0001584538033112084
-0.0001612095216296642
-0.00017223239490348733
-0.00016672095826657574
-0.0001391637750820179
-2.066788738841907e-05
0.0002383696345464249
0.0006159030441748677
0.001007215045395589
0.0013130997787441814
0.0013819927367055766
0.0011009094682230861
0.000560788677805752
5.9247943846798756e-05
-0.00019703385976958942
-0.00021632388799877996
-0.00021356816968032413
-0.00023561391622797047
-0.00024939250782024937
-0.0002466367895017936
-0.00023010247959105888
-0.00023836963454642628
-0.0002466367895017936
-0.00024112535286488197
-0.00022734676127260308
-0.00021632388799877996
-0.0002218353246356915
-0.00023010247959105888
-0.00022734676127260308
-0.00021356816968032413
-0.0001997895780880452
-0.0001997895780880452
-0.0002108124513618684
-0.0002080567330434125
-0.00019427814145113364
-0.00018049954985885472
-0.00017498811322194308
-0.00018049954985885472
-0.00018049954985885472
-0.00016947667658503157
-0.000150186648355841
-0.0001391637750820179
-0.00014191949340047367
-0.0001391637750820179
-0.00012814090180819475
-0.00010885087357900426
-8.956084534981374e-05
-8.680512703135793e-05
-7.85379720759906e-05
-5.9247943846800084e-05
-3.4446478980697995e-05
-1.7912169069963278e-05
-9.64501411459592e-06
1.3778591592272275e-06
1.5156450751506162e-05
3.720219729915245e-05
5.649222552834297e-05
5.9247943846798756e-05
5.373650720988717e-05
5.9247943846798756e-05
7.02708171206219e-05
7.578225375753347e-05
7.30265354390777e-05
5.9247943846798756e-05
5.098078889143139e-05
5.098078889143139e-05
4.82250705729756e-05
3.169076066224089e-05
6.8892957961388014e-06
-1.5156450751507488e-05
-2.066788738841907e-05
-2.066788738841907e-05
-3.4446478980697995e-05
-6.200366216525588e-05
-8.680512703135793e-05
-9.507228198672531e-05
-9.78280003051811e-05
-0.00010885087357900426
-0.00012538518348973897
-0.0001391637750820179
-0.00014467521171892948
-0.00014191949340047367
-0.0001391637750820179
-0.000150186648355841
-0.00016672095826657574
-0.00016396523994811996
-0.0001584538033112084
-0.00016396523994811996
-0.00017498811322194308
-0.00018049954985885472
-0.00016672095826657574
-0.00014743093003738526
-0.0001364080567635621
-0.00014191949340047367
-0.00014467521171892948
-0.0001336523384451063
-0.0001226294651712832
-0.00011160659189746003
-0.00010333943694209268
-8.956084534981374e-05
-6.751509880216745e-05
-5.3736507209888505e-05
-5.3736507209888505e-05
-5.9247943846800084e-05
-6.751509880216745e-05
-7.302653543907902e-05
-7.027081712062322e-05
-8.129369039444639e-05
-0.00011436231021591582
-0.00014467521171892948
-0.00015569808499275262
-0.00015294236667429682
-0.000150186648355841
-0.0001584538033112084
-0.00017223239490348733
-0.00017498811322194308
-0.00016396523994811996
-0.0001584538033112084
-0.0001584538033112084
-0.00016947667658503157
-0.00017223239490348733
-0.00016672095826657574
-0.0001612095216296642
-0.00015294236667429682
-0.0001364080567635621
-4.8225070572976926e-05
0.00018876670481422076
0.000585590142671854
0.0010265050736247801
0.0013571912718394743
0.001423328511482413
0.0011091766231784534
0.0005635443961242077
7.30265354390777e-05
-0.00018325526817731047
-0.00021356816968032413
-0.0002080567330434125
-0.00020530101472495681
-0.0001997895780880452
-0.00020254529640650095
-0.00021632388799877996
-0.00021356816968032413
-0.0001997895780880452
-0.00018876670481422206
-0.00019152242313267784
-0.00020254529640650095
-0.0001997895780880452
-0.00018325526817731047
-0.00017223239490348733
-0.00017498811322194308
-0.0001777438315403989
-0.00016672095826657574
-0.00015569808499275262
-0.00015294236667429682
-0.00015569808499275262
-0.00015294236667429682
-0.00014467521171892948
-0.00012538518348973897
-0.0001171180285343716
-0.0001198737468528274
-0.0001171180285343716
-0.00010058371862363688
-7.57822537575348e-05
-5.9247943846800084e-05
-5.098078889143272e-05
-4.2713633936065354e-05
-2.6179324025330647e-05
4.133577477683014e-06
3.169076066224089e-05
4.82250705729756e-05
6.200366216525454e-05
8.129369039444505e-05
0.00010885087357900291
0.00013365233844510492
0.00014743093003738393
0.00015018664835583973
0.00015845380331120705
0.00017774383154039756
0.00019427814145113231
0.00019427814145113231
0.00018049954985885336
0.00017498811322194178
0.000172232394903486
0.00016672095826657444
0.00015018664835583973
0.00011987374685282605
8.68051270313566e-05
7.30265354390777e-05
6.200366216525454e-05
3.9957915617608246e-05
6.8892957961388014e-06
-2.6179324025330647e-05
-4.5469352254521147e-05
-4.5469352254521147e-05
-5.9247943846800084e-05
-0.00010058371862363688
-0.000150186648355841
-0.00019152242313267784
-0.00018325526817731047
-0.000150186648355841
-0.00012538518348973897
-0.00011160659189746003
-0.00010885087357900426
-0.00010885087357900426
-0.00011160659189746003
-0.00012538518348973897
-0.0001391637750820179
-0.00015569808499275262
-0.00016396523994811996
-0.00016672095826657574
-0.00017223239490348733
-0.00018049954985885472
-0.00018876670481422206
-0.00018601098649576628
-0.00017498811322194308
-0.00018049954985885472
-0.00017223239490348733
-0.00014743093003738526
-0.00010885087357900426
-8.129369039444639e-05
-7.57822537575348e-05
-7.85379720759906e-05
-7.302653543907902e-05
-5.9247943846800084e-05
-5.9247943846800084e-05
-7.302653543907902e-05
-8.956084534981374e-05
-0.00011436231021591582
-0.0001226294651712832
-0.00012538518348973897
-0.0001364080567635621
-0.000150186648355841
-0.00015569808499275262
-0.00015294236667429682
-0.00014191949340047367
-0.00014467521171892948
-0.0001612095216296642
-0.00017498811322194308
-0.00017223239490348733
-0.00016672095826657574
-0.00017223239490348733
-0.00018601098649576628
-0.00018876670481422206
-0.00015569808499275262
-9.64501411459592e-06
0.00030450687418936376
0.000753688960097657
0.0011863367360952157
0.0014839543144884403
0.0014839543144884403
0.0010733522850385282
0.00042851419851987416
-8.956084534981374e-05
-0.00027143825436789566
-0.00022734676127260308
-0.00018876670481422206
-0.00019427814145113364
-0.0001997895780880452
-0.00019703385976958942
-0.0001777438315403989
-0.0001612095216296642
-0.00016396523994811996
-0.00016672095826657574
-0.0001584538033112084
-0.00014467521171892948
-0.00013089662012665053
-0.00012538518348973897
-0.0001336523384451063
-0.0001336523384451063
-0.0001226294651712832
-0.00011160659189746003
-0.00010333943694209268
-0.00010885087357900426
-0.00011160659189746003
-0.00010058371862363688
-8.404940871290214e-05
-7.302653543907902e-05
-7.302653543907902e-05
-7.57822537575348e-05
-6.200366216525588e-05
-4.2713633936065354e-05
-1.5156450751507488e-05
-1.240073243305171e-05
4.133577477683014e-06
3.169076066224089e-05
6.200366216525454e-05
7.853797207598924e-05
9.23165636682682e-05
0.00011436231021591448
0.00014743093003738393
0.00018049954985885336
0.00020530101472495543
0.00021632388799877858
0.00023010247959105753
0.00026041538109407124
0.00029072828259708476
0.00029623971923399637
0.00029623971923399637
0.00029623971923399637
0.00030450687418936376
0.00031001831082627527
0.0003072625925078196
0.0002879725642786291
0.0002576596627756154
0.0002383696345464249
0.00022459104295414594
0.00020254529640649968
0.000172232394903486
0.00014467521171892812
0.00011987374685282605
0.00010609515526054714
8.68051270313566e-05
5.373650720988717e-05
2.3423605706873515e-05
1.3778591592272275e-06
-6.889295796140132e-06
-1.5156450751507488e-05
-2.6179324025330647e-05
-3.995791561760957e-05
-5.098078889143272e-05
-5.3736507209888505e-05
-5.098078889143272e-05
-5.6492225528344285e-05
-7.027081712062322e-05
-7.85379720759906e-05
-7.57822537575348e-05
-6.751509880216745e-05
-6.475938048371164e-05
-7.302653543907902e-05
-7.85379720759906e-05
-6.475938048371164e-05
-4.8225070572976926e-05
-3.995791561760957e-05
-3.995791561760957e-05
-4.5469352254521147e-05
-3.720219729915378e-05
-6.889295796140132e-06
2.3423605706873515e-05
3.720219729915245e-05
4.271363393606403e-05
4.546935225451981e-05
5.649222552834297e-05
6.200366216525454e-05
5.649222552834297e-05
3.720219729915245e-05
2.3423605706873515e-05
1.3778591592272275e-06
-1.7912169069963278e-05
-3.720219729915378e-05
-4.8225070572976926e-05
-4.8225070572976926e-05
-4.5469352254521147e-05
-4.8225070572976926e-05
-5.3736507209888505e-05
-6.200366216525588e-05
-5.9247943846800084e-05
-4.8225070572976926e-05
-4.5469352254521147e-05
-5.6492225528344285e-05
-6.751509880216745e-05
-6.200366216525588e-05
-4.5469352254521147e-05
9.64501411459459e-06
0.00018049954985885336
0.0005304757763027383
0.000985169298847943
0.0013819927367055766
0.0015666258640421142
0.0013902598916609437
0.0008721848477912556
0.0002852168459601733
-8.680512703135793e-05
-0.0001584538033112084
-0.0001226294651712832
-0.0001171180285343716
-0.0001226294651712832
-0.00011160659189746003
-0.00010058371862363688
-9.78280003051811e-05
-0.00010333943694209268
-0.00010885087357900426
-9.78280003051811e-05
-8.129369039444639e-05
-6.751509880216745e-05
-6.751509880216745e-05
-7.027081712062322e-05
-6.200366216525588e-05
-5.098078889143272e-05
-4.5469352254521147e-05
-5.098078889143272e-05
-5.3736507209888505e-05
-4.8225070572976926e-05
-3.4446478980697995e-05
-2.6179324025330647e-05
-2.8935042343786426e-05
-2.8935042343786426e-05
-2.342360570687485e-05
-1.5156450751507488e-05
-1.377859159228559e-06
1.3778591592272275e-06
1.3778591592272275e-06
9.64501411459459e-06
2.8935042343785094e-05
4.82250705729756e-05
6.200366216525454e-05
6.751509880216611e-05
8.404940871290084e-05
0.00010885087357900291
0.00013916377508201656
0.00016120952162966288
0.00017498811322194178
0.00020805673304341124
0.00023285819790951333
0.00024663678950179223
0.0002493925078202481
0.0002493925078202481
0.0002576596627756154
0.00027143825436789435
0.00027143825436789435
0.0002576596627756154
0.0002383696345464249
0.0002218353246356902
0.00021632388799877858
0.00020530101472495543
0.00017774383154039756
0.00014467521171892812
0.00011987374685282605
0.00011160659189745871
9.782800030517979e-05
7.578225375753347e-05
4.82250705729756e-05
3.169076066224089e-05
2.3423605706873515e-05
1.7912169069961946e-05
6.8892957961388014e-06
-9.64501411459592e-06
-2.066788738841907e-05
-1.7912169069963278e-05
-1.5156450751507488e-05
-1.7912169069963278e-05
-3.169076066224221e-05
-3.720219729915378e-05
-3.4446478980697995e-05
-3.169076066224221e-05
-3.169076066224221e-05
-4.2713633936065354e-05
-4.8225070572976926e-05
-3.720219729915378e-05
-1.5156450751507488e-05
-4.133577477684346e-06
-9.64501411459592e-06
-9.64501411459592e-06
-9.64501411459592e-06
4.133577477683014e-06
2.6179324025329308e-05
3.9957915617608246e-05
4.82250705729756e-05
5.9247943846798756e-05
7.02708171206219e-05
7.578225375753347e-05
7.02708171206219e-05
5.9247943846798756e-05
4.82250705729756e-05
4.546935225451981e-05
3.720219729915245e-05
9.64501411459459e-06
-2.066788738841907e-05
-3.995791561760957e-05
-3.995791561760957e-05
-3.4446478980697995e-05
-3.720219729915378e-05
-4.8225070572976926e-05
-5.3736507209888505e-05
-5.098078889143272e-05
-3.720219729915378e-05
-3.169076066224221e-05
-4.5469352254521147e-05
-4.8225070572976926e-05
-3.995791561760957e-05
-2.066788738841907e-05
2.066788738841773e-05
0.00013916377508201656
0.0004064684519722279
0.0007950247348744939
0.0011725581445029367
0.0014095499198901345
0.00135994699015793
0.000982413580529487
0.00048362856488898997
8.956084534981241e-05
-6.475938048371164e-05
-7.302653543907902e-05
-7.85379720759906e-05
-7.57822537575348e-05
-6.751509880216745e-05
-6.751509880216745e-05
-7.57822537575348e-05
-8.404940871290214e-05
-7.57822537575348e-05
-6.475938048371164e-05
-6.751509880216745e-05
-7.57822537575348e-05
-8.129369039444639e-05
-7.302653543907902e-05
-6.200366216525588e-05
-5.6492225528344285e-05
-6.475938048371164e-05
-7.302653543907902e-05
-7.027081712062322e-05
-5.9247943846800084e-05
-5.098078889143272e-05
-5.3736507209888505e-05
-5.9247943846800084e-05
-5.6492225528344285e-05
-4.2713633936065354e-05
-3.169076066224221e-05
-3.169076066224221e-05
-2.8935042343786426e-05
-2.342360570687485e-05
-9.64501411459592e-06
6.8892957961388014e-06
1.7912169069961946e-05
2.3423605706873515e-05
3.169076066224089e-05
5.373650720988717e-05
8.129369039444505e-05
0.00010333943694209132
0.00011711802853437029
0.00013365233844510492
0.00015294236667429551
0.00017774383154039756
0.0001970338597695881
0.00020254529640649968
0.00020530101472495543
0.00021632388799877858
0.00023285819790951333
0.0002383696345464249
0.00023010247959105753
0.00021632388799877858
0.00020805673304341124
0.00020805673304341124
0.00019978957808804387
0.00014743093003738393
0.00012262946517128183
0.00010885087357900291
0.00010058371862363556
7.578225375753347e-05
4.546935225451981e-05
1.7912169069961946e-05
9.64501411459459e-06
4.133577477683014e-06
-9.64501411459592e-06
-2.8935042343786426e-05
-4.5469352254521147e-05
-5.098078889143272e-05
-4.8225070572976926e-05
-4.8225070572976926e-05
-6.200366216525588e-05
-7.027081712062322e-05
-6.751509880216745e-05
-6.475938048371164e-05
-6.751509880216745e-05
-7.57822537575348e-05
-8.404940871290214e-05
-8.404940871290214e-05
-6.751509880216745e-05
-5.098078889143272e-05
-5.098078889143272e-05
-5.6492225528344285e-05
-5.098078889143272e-05
-3.995791561760957e-05
-3.169076066224221e-05
-2.342360570687485e-05
-1.240073243305171e-05
4.133577477683014e-06
2.3423605706873515e-05
2.8935042343785094e-05
2.6179324025329308e-05
1.7912169069961946e-05
9.64501411459459e-06
9.64501411459459e-06
9.64501411459459e-06
-9.64501411459592e-06
-3.995791561760957e-05
-5.6492225528344285e-05
-6.475938048371164e-05
-5.9247943846800084e-05
-5.6492225528344285e-05
-6.475938048371164e-05
-7.57822537575348e-05
-7.85379720759906e-05
-6.475938048371164e-05
-6.200366216525588e-05
-6.475938048371164e-05
-6.751509880216745e-05
-7.027081712062322e-05
-6.475938048371164e-05
-6.200366216525588e-05
-5.3736507209888505e-05
-1.240073243305171e-05
0.00013916377508201656
0.000456071381704432
0.0008721848477912556
0.0012552296940566102
0.0014481299763485153
0.001321366933699549
0.0008804520027466232
-1.7912169069963278e-05
-0.0001226294651712832
-0.00010885087357900426
-0.00010885087357900426
-0.00010609515526054846
-0.00010333943694209268
-0.00010885087357900426
-0.0001171180285343716
-0.00011436231021591582
-0.00010058371862363688
-9.78280003051811e-05
-0.00010058371862363688
-0.00010609515526054846
-0.00010333943694209268
-8.680512703135793e-05
-7.85379720759906e-05
-7.85379720759906e-05
-8.680512703135793e-05
-7.85379720759906e-05
-7.027081712062322e-05
-5.9247943846800084e-05
-5.9247943846800084e-05
-6.200366216525588e-05
-5.9247943846800084e-05
-4.2713633936065354e-05
-2.8935042343786426e-05
-2.6179324025330647e-05
-2.6179324025330647e-05
-2.342360570687485e-05
-9.64501411459592e-06
9.64501411459459e-06
2.066788738841773e-05
2.3423605706873515e-05
3.444647898069667e-05
5.649222552834297e-05
8.404940871290084e-05
0.00010609515526054714
0.00011711802853437029
0.00012814090180819342
0.00014743093003738393
0.000172232394903486
0.00019427814145113231
0.00020530101472495543
0.000210812451361867
0.0002190796063172344
0.00023285819790951333
0.00024112535286488067
0.00023561391622796914
0.00022459104295414594
0.0002135681696803228
0.00020805673304341124
0.00020805673304341124
0.00019152242313267648
0.00016672095826657444
0.00014467521171892812
0.00013089662012664922
0.00011436231021591448
9.507228198672396e-05
6.751509880216611e-05
4.271363393606403e-05
3.169076066224089e-05
2.3423605706873515e-05
9.64501411459459e-06
-9.64501411459592e-06
-2.342360570687485e-05
-2.342360570687485e-05
-2.8935042343786426e-05
-3.995791561760957e-05
-4.5469352254521147e-05
-4.8225070572976926e-05
-4.8225070572976926e-05
-4.8225070572976926e-05
-5.3736507209888505e-05
-6.200366216525588e-05
-6.475938048371164e-05
-5.6492225528344285e-05
-4.2713633936065354e-05
-3.720219729915378e-05
-4.2713633936065354e-05
-3.995791561760957e-05
-2.6179324025330647e-05
-1.7912169069963278e-05
-1.7912169069963278e-05
-6.889295796140132e-06
9.64501411459459e-06
3.720219729915245e-05
5.649222552834297e-05
5.9247943846798756e-05
4.82250705729756e-05
3.9957915617608246e-05
3.9957915617608246e-05
3.9957915617608246e-05
2.8935042343785094e-05
1.3778591592272275e-06
-3.169076066224221e-05
-3.995791561760957e-05
-3.720219729915378e-05
-3.995791561760957e-05
-5.098078889143272e-05
-5.9247943846800084e-05
-5.9247943846800084e-05
-5.098078889143272e-05
-4.5469352254521147e-05
-5.098078889143272e-05
-5.9247943846800084e-05
-6.200366216525588e-05
-5.3736507209888505e-05
-5.098078889143272e-05
-5.3736507209888505e-05
-5.098078889143272e-05
1.3778591592272275e-06
0.0001832552681773092
0.0005414986495765614
0.0010044593270771337
0.0014288399481193247
0.0016465416952773319
0.0015115114976729984
0.0010127264820325008
0.00042300276188296266
6.8892957961388014e-06
-0.00010885087357900426
-9.78280003051811e-05
-9.78280003051811e-05
-0.00010609515526054846
-0.00011436231021591582
-0.0001226294651712832
-0.0001226294651712832
-0.00011436231021591582
-0.00010885087357900426
-0.00011436231021591582
-0.0001198737468528274
-0.00010609515526054846
-9.507228198672531e-05
-9.507228198672531e-05
-0.00010058371862363688
-9.507228198672531e-05
-8.404940871290214e-05
-7.027081712062322e-05
-7.027081712062322e-05
-7.302653543907902e-05
-7.027081712062322e-05
-6.200366216525588e-05
-4.8225070572976926e-05
-3.995791561760957e-05
-4.2713633936065354e-05
-3.995791561760957e-05
-2.6179324025330647e-05
-4.133577477684346e-06
6.8892957961388014e-06
9.64501411459459e-06
1.7912169069961946e-05
3.9957915617608246e-05
6.751509880216611e-05
8.956084534981241e-05
0.00010333943694209132
0.00011987374685282605
0.00014743093003738393
0.00017774383154039756
0.0001970338597695881
0.00021632388799877858
0.00022734676127260172
0.00023561391622796914
0.00025214822613870384
0.0002686825360494386
0.0002741939726863501
0.00026592681773098274
0.000263171099412527
0.000263171099412527
0.000263171099412527
0.0002493925078202481
0.0002218353246356902
0.00019152242313267648
0.00017498811322194178
0.00016120952162966288
0.00013916377508201656
0.00010609515526054714
7.578225375753347e-05
5.9247943846798756e-05
4.546935225451981e-05
2.8935042343785094e-05
6.8892957961388014e-06
-1.5156450751507488e-05
-2.8935042343786426e-05
-3.169076066224221e-05
-3.4446478980697995e-05
-4.5469352254521147e-05
-5.9247943846800084e-05
-6.751509880216745e-05
-6.200366216525588e-05
-5.9247943846800084e-05
-6.751509880216745e-05
-7.85379720759906e-05
-8.404940871290214e-05
-8.129369039444639e-05
-7.57822537575348e-05
-7.57822537575348e-05
-7.85379720759906e-05
-7.027081712062322e-05
-5.6492225528344285e-05
-5.3736507209888505e-05
-5.3736507209888505e-05
-4.2713633936065354e-05
-1.7912169069963278e-05
1.5156450751506162e-05
2.8935042343785094e-05
2.066788738841773e-05
1.5156450751506162e-05
1.7912169069961946e-05
2.3423605706873515e-05
2.066788738841773e-05
4.133577477683014e-06
-2.066788738841907e-05
-4.5469352254521147e-05
-5.6492225528344285e-05
-5.9247943846800084e-05
-7.027081712062322e-05
-7.85379720759906e-05
-8.129369039444639e-05
-7.57822537575348e-05
-7.027081712062322e-05
-7.57822537575348e-05
-8.680512703135793e-05
-8.680512703135793e-05
-7.85379720759906e-05
-7.027081712062322e-05
-7.302653543907902e-05
-8.404940871290214e-05
-8.956084534981374e-05
-5.9247943846800084e-05
8.68051270313566e-05
0.00041197988860913943
0.0008997420309758136
0.0014095499198901345
0.0017567704280155635
0.0017374803997863729
0.001257985412375066
0.0005663001144426635
2.066788738841773e-05
-0.0001612095216296642
-0.0001364080567635621
-0.0001364080567635621
-0.00015294236667429682
-0.00016396523994811996
-0.00016672095826657574
-0.0001584538033112084
-0.000150186648355841
-0.000150186648355841
-0.00015569808499275262
-0.00015569808499275262
-0.00014467521171892948
-0.00013089662012665053
-0.0001336523384451063
-0.00014191949340047367
-0.0001391637750820179
-0.00013089662012665053
-0.0001171180285343716
-0.0001171180285343716
-0.0001198737468528274
-0.0001171180285343716
-0.00010885087357900426
-9.78280003051811e-05
-8.956084534981374e-05
-8.956084534981374e-05
-7.85379720759906e-05
-5.9247943846800084e-05
-4.2713633936065354e-05
-4.2713633936065354e-05
-3.4446478980697995e-05
-1.5156450751507488e-05
1.2400732433050376e-05
3.444647898069667e-05
4.82250705729756e-05
5.9247943846798756e-05
7.578225375753347e-05
9.507228198672396e-05
0.00011987374685282605
0.00013916377508201656
0.00015294236667429551
0.00015018664835583973
0.00014191949340047234
0.00014467521171892812
0.00014743093003738393
0.00016120952162966288
0.00017498811322194178
0.00020530101472495543
0.0002190796063172344
0.00020805673304341124
0.00017774383154039756
0.00014191949340047234
0.00012262946517128183
0.00010333943694209132
7.30265354390777e-05
3.444647898069667e-05
-1.240073243305171e-05
-5.098078889143272e-05
-7.85379720759906e-05
-0.00010609515526054846
-0.0001391637750820179
-0.00017498811322194308
-0.00019703385976958942
-0.00019703385976958942
-0.00019703385976958942
-0.00021356816968032413
-0.00023561391622797047
-0.00023836963454642628
-0.00023010247959105888
-0.00023010247959105888
-0.00023285819790951464
-0.00023561391622797047
-0.00023561391622797047
-0.00023285819790951464
-0.00022734676127260308
-0.00022459104295414727
-0.00023285819790951464
-0.00023836963454642628
-0.00023285819790951464
-0.00021632388799877996
-0.0002080567330434125
-0.0002108124513618684
-0.00021356816968032413
-0.00020530101472495681
-0.00019427814145113364
-0.0001777438315403989
-0.0001584538033112084
-0.000150186648355841
-0.0001364080567635621
-0.0001226294651712832
-0.00013089662012665053
-0.00014467521171892948
-0.00015569808499275262
-0.0001612095216296642
-0.00017223239490348733
-0.0001997895780880452
-0.00021632388799877996
-0.00022734676127260308
-0.0002218353246356915
-0.00021356816968032413
-0.0002108124513618684
-0.00021632388799877996
-0.00021356816968032413
-0.00019703385976958942
-0.00018049954985885472
-0.0001777438315403989
-0.00018325526817731047
-0.00019152242313267784
-0.00018876670481422206
-0.00017498811322194308
-0.00016672095826657574
-0.0001171180285343716
9.23165636682682e-05
0.0005222086213473709
0.0010650851300831607
0.0015225343709468217
0.001720946089875638
0.0014674200045777057
0.000806047608148317
0.00011436231021591448
-0.00027970540932326305
-0.0003293083390554673
-0.00027694969100480727
-0.0002521482261387052
-0.00024112535286488197
-0.00022734676127260308
-0.00022459104295414727
-0.00022734676127260308
-0.00022459104295414727
-0.0002108124513618684
-0.00019152242313267784
-0.00018876670481422206
-0.00018876670481422206
-0.00018601098649576628
-0.00017498811322194308
-0.00016396523994811996
-0.00015569808499275262
-0.0001584538033112084
-0.0001612095216296642
-0.00014743093003738526
-0.0001336523384451063
-0.0001226294651712832
-0.00012538518348973897
-0.00012814090180819475
-0.0001226294651712832
-0.00010609515526054846
-9.231656366826955e-05
-9.231656366826955e-05
-9.78280003051811e-05
-8.956084534981374e-05
-7.302653543907902e-05
-5.6492225528344285e-05
-4.2713633936065354e-05
-3.995791561760957e-05
-1.377859159228559e-06
2.6179324025329308e-05
4.271363393606403e-05
5.373650720988717e-05
7.02708171206219e-05
0.00010058371862363556
0.00013089662012664922
0.00015018664835583973
0.00016120952162966288
0.00016396523994811866
0.00017498811322194178
0.00018876670481422076
0.00018876670481422076
0.00017498811322194178
0.00016396523994811866
0.0001556980849927513
0.00014743093003738393
0.00013089662012664922
0.00010058371862363556
7.02708171206219e-05
4.271363393606403e-05
2.6179324025329308e-05
-1.377859159228559e-06
-3.720219729915378e-05
-7.027081712062322e-05
-9.231656366826955e-05
-0.00010609515526054846
-0.0001171180285343716
-0.0001391637750820179
-0.00016396523994811996
-0.00017498811322194308
-0.00018325526817731047
-0.00018049954985885472
-0.00018601098649576628
-0.0001997895780880452
-0.00020254529640650095
-0.0001997895780880452
-0.00019703385976958942
-0.00019703385976958942
-0.0002080567330434125
-0.00021632388799877996
-0.00021356816968032413
-0.00020254529640650095
-0.00019152242313267784
-0.00019152242313267784
-0.00019152242313267784
-0.00018325526817731047
-0.00016672095826657574
-0.00016396523994811996
-0.00016396523994811996
-0.00015294236667429682
-0.00013089662012665053
-9.78280003051811e-05
-7.85379720759906e-05
-8.129369039444639e-05
-8.956084534981374e-05
-9.231656366826955e-05
-8.680512703135793e-05
-8.680512703135793e-05
-0.00010058371862363688
-0.00013089662012665053
-0.00016396523994811996
-0.00017498811322194308
-0.00017498811322194308
-0.00018049954985885472
-0.0002080567330434125
-0.00020530101472495681
-0.00019427814145113364
-0.00019152242313267784
-0.00020254529640650095
-0.0002080567330434125
-0.00020530101472495681
-0.0001997895780880452
-0.0001997895780880452
-0.00020530101472495681
-0.00020530101472495681
-0.00014191949340047367
6.751509880216611e-05
0.0004643385366597993
0.0009355663691157388
0.001332389806973372
0.0015087557793545424
0.0013075883421072702
0.0007509332417792012
0.00013640805676356078
-0.00024112535286488197
-0.00030175115587090934
-0.00025765966277561676
-0.0002466367895017936
-0.0002521482261387052
-0.0002604153810940725
-0.0002631710994125282
-0.0002521482261387052
-0.00024112535286488197
-0.00024112535286488197
-0.00024388107118333775
-0.0002466367895017936
-0.00023561391622797047
-0.00022734676127260308
-0.00022459104295414727
-0.00023010247959105888
-0.00023836963454642628
-0.00023561391622797047
-0.00022459104295414727
-0.00021356816968032413
-0.0002190796063172357
-0.00023010247959105888
-0.00022459104295414727
-0.00021356816968032413
-0.00020254529640650095
-0.00020254529640650095
-0.00020530101472495681
-0.00019703385976958942
-0.00018049954985885472
-0.00016672095826657574
-0.0001612095216296642
-0.0001584538033112084
-0.00014467521171892948
-0.0001198737468528274
-9.78280003051811e-05
-7.57822537575348e-05
-6.200366216525588e-05
-4.5469352254521147e-05
-1.7912169069963278e-05
1.5156450751506162e-05
3.444647898069667e-05
4.546935225451981e-05
5.098078889143139e-05
5.9247943846798756e-05
7.30265354390777e-05
8.129369039444505e-05
7.30265354390777e-05
8.129369039444505e-05
8.956084534981241e-05
9.23165636682682e-05
8.68051270313566e-05
8.129369039444505e-05
7.30265354390777e-05
5.649222552834297e-05
3.720219729915245e-05
4.133577477683014e-06
-3.720219729915378e-05
-7.027081712062322e-05
-8.680512703135793e-05
-0.00010333943694209268
-0.0001364080567635621
-0.0001777438315403989
-0.00020254529640650095
-0.0002108124513618684
-0.0002108124513618684
-0.0002190796063172357
-0.00023285819790951464
-0.00024388107118333775
-0.00024112535286488197
-0.00023010247959105888
-0.00023010247959105888
-0.00024112535286488197
-0.00024939250782024937
-0.00024939250782024937
-0.00024112535286488197
-0.00023836963454642628
-0.00024388107118333775
-0.0002549039444571609
-0.00023836963454642628
-0.0001612095216296642
4.133577477683014e-06
0.0002741939726863501
0.000676528847180895
0.0011064209048599978
0.0014150613565270462
0.0014205727931639574
0.0009272992141603715
0.00011711802853437029
-0.000423002761882964
-0.00044504850843061025
-0.00031828546578164407
-0.00027419397268635144
-0.0002852168459601746
-0.00028797256427863044
-0.00027970540932326305
-0.00027143825436789566
-0.00027143825436789566
-0.00027970540932326305
-0.0002824611276417188
-0.00027143825436789566
-0.0002604153810940725
-0.0002521482261387052
-0.0002549039444571609
-0.00026592681773098404
-0.0002631710994125282
-0.0002466367895017936
-0.00023836963454642628
-0.00023836963454642628
-0.00023836963454642628
-0.00023561391622797047
-0.0002218353246356915
-0.00020254529640650095
-0.00020254529640650095
-0.00019427814145113364
-0.00017498811322194308
-0.00015569808499275262
-0.00014743093003738526
-0.0001336523384451063
-0.0001198737468528274
-9.507228198672531e-05
-6.475938048371164e-05
-4.5469352254521147e-05
-2.6179324025330647e-05
-6.889295796140132e-06
2.3423605706873515e-05
5.9247943846798756e-05
8.404940871290084e-05
9.507228198672396e-05
0.00010885087357900291
0.00013089662012664922
0.00015845380331120705
0.00017498811322194178
0.00017774383154039756
0.00017774383154039756
0.00018049954985885336
0.0001832552681773092
0.00018049954985885336
0.00015845380331120705
0.00012814090180819342
9.782800030517979e-05
7.578225375753347e-05
5.098078889143139e-05
1.2400732433050376e-05
-2.8935042343786426e-05
-6.475938048371164e-05
-8.404940871290214e-05
-9.78280003051811e-05
-0.0001226294651712832
-0.000150186648355841
-0.00016947667658503157
-0.0001777438315403989
-0.00017223239490348733
-0.00017498811322194308
-0.00018601098649576628
-0.00019703385976958942
-0.00019152242313267784
-0.00018325526817731047
-0.00018049954985885472
-0.00018601098649576628
-0.00019152242313267784
-0.00018876670481422206
-0.00017498811322194308
-0.00016947667658503157
-0.0001777438315403989
-0.00018325526817731047
-0.00018325526817731047
-0.00017223239490348733
-0.00016396523994811996
-0.00016672095826657574
-0.00017498811322194308
-0.0001777438315403989
-0.00016672095826657574
-0.0001584538033112084
-0.00016672095826657574
-0.0001777438315403989
-0.00018325526817731047
-0.00016396523994811996
-0.00016947667658503157
-0.0001777438315403989
-0.00018049954985885472
