0.000210812451361867
0.00021632388799877858
0.0002190796063172344
0.00022459104295414594
0.00023285819790951333
0.0002383696345464249
0.00022459104295414594
0.00020530101472495543
0.00018876670481422076
0.0001832552681773092
0.000172232394903486
0.00014743093003738393
0.00011711802853437029
9.23165636682682e-05
8.129369039444505e-05
7.578225375753347e-05
5.649222552834297e-05
2.6179324025329308e-05
-6.889295796140132e-06
-1.240073243305171e-05
-2.6179324025330647e-05
-5.098078889143272e-05
-6.751509880216745e-05
-6.751509880216745e-05
-6.200366216525588e-05
-6.751509880216745e-05
-8.404940871290214e-05
-0.00010058371862363688
-0.00010609515526054846
-9.78280003051811e-05
-9.507228198672531e-05
-0.00010609515526054846
-0.0001226294651712832
-0.0001171180285343716
-9.78280003051811e-05
-8.404940871290214e-05
-8.956084534981374e-05
-0.00010058371862363688
-0.00010058371862363688
-8.680512703135793e-05
-5.9247943846800084e-05
-4.5469352254521147e-05
-4.5469352254521147e-05
-3.995791561760957e-05
-2.6179324025330647e-05
-1.5156450751507488e-05
-1.5156450751507488e-05
-2.8935042343786426e-05
-4.5469352254521147e-05
-4.5469352254521147e-05
-3.995791561760957e-05
-5.6492225528344285e-05
-9.231656366826955e-05
-0.00011436231021591582
-0.0001171180285343716
-0.00011160659189746003
-0.00011160659189746003
-0.0001226294651712832
-0.0001336523384451063
-0.00012814090180819475
-0.0001171180285343716
-0.00011160659189746003
-0.00011436231021591582
-0.00012538518348973897
-0.00013089662012665053
-0.00012538518348973897
-0.00010609515526054846
-8.956084534981374e-05
-1.7912169069963278e-05
0.0001832552681773092
0.0005525215228503846
0.000971390707255664
0.001271764003967345
0.0013020769054703587
0.000985169298847943
0.0004588271000228878
1.3778591592272275e-06
-0.0002631710994125282
-0.0002962397192339978
-0.00024388107118333775
-0.0002108124513618684
-0.00018601098649576628
-0.00017223239490348733
-0.0001777438315403989
-0.0001777438315403989
-0.0001612095216296642
-0.000150186648355841
-0.00015294236667429682
-0.0001612095216296642
-0.0001584538033112084
-0.00014191949340047367
-0.00012538518348973897
-0.00012538518348973897
-0.00013089662012665053
-0.00013089662012665053
-0.00011436231021591582
-0.00010058371862363688
-9.507228198672531e-05
-0.00010058371862363688
-9.78280003051811e-05
-7.85379720759906e-05
-5.6492225528344285e-05
-4.8225070572976926e-05
-4.2713633936065354e-05
-3.169076066224221e-05
-4.133577477684346e-06
2.8935042343785094e-05
5.9247943846798756e-05
8.129369039444505e-05
0.00010609515526054714
0.00015018664835583973
0.0001970338597695881
0.00023010247959105753
0.0002493925078202481
0.000263171099412527
0.0002852168459601733
0.0003127740291447311
0.00032379690241855427
0.00032104118410009855
0.0003127740291447311
0.00030450687418936376
0.0003072625925078196
0.000301751155870908
0.00027970540932326175
0.0002493925078202481
0.0002218353246356902
0.00020530101472495543
0.00019427814145113231
0.00016672095826657444
0.00013365233844510492
0.00010058371862363556
8.956084534981241e-05
8.129369039444505e-05
6.200366216525454e-05
3.169076066224089e-05
9.64501411459459e-06
-1.377859159228559e-06
-4.133577477684346e-06
-1.240073243305171e-05
-3.720219729915378e-05
-5.3736507209888505e-05
-5.3736507209888505e-05
-4.5469352254521147e-05
-5.098078889143272e-05
-6.751509880216745e-05
-8.404940871290214e-05
-8.956084534981374e-05
-8.404940871290214e-05
-7.302653543907902e-05
-8.129369039444639e-05
-8.129369039444639e-05
-7.027081712062322e-05
-5.6492225528344285e-05
-5.6492225528344285e-05
-5.9247943846800084e-05
-4.2713633936065354e-05
-1.5156450751507488e-05
9.64501411459459e-06
1.7912169069961946e-05
9.64501411459459e-06
6.8892957961388014e-06
1.5156450751506162e-05
1.5156450751506162e-05
6.8892957961388014e-06
-9.64501411459592e-06
-3.720219729915378e-05
-5.9247943846800084e-05
-6.200366216525588e-05
-6.751509880216745e-05
-8.404940871290214e-05
-0.00010058371862363688
-0.00010609515526054846
-9.231656366826955e-05
-8.680512703135793e-05
-9.231656366826955e-05
-0.00010609515526054846
-0.00010885087357900426
-9.507228198672531e-05
-8.956084534981374e-05
-0.00010058371862363688
-0.00011436231021591582
-0.00010333943694209268
-1.240073243305171e-05
0.0002190796063172344
0.0006241701991302349
0.0011119323414969095
0.001489465751125352
0.0015776487373159373
0.0012359396658274198
0.0006021244525825888
2.066788738841773e-05
-0.0003127740291447324
-0.0003458426489662019
-0.0002521482261387052
-0.0001997895780880452
-0.00018876670481422206
-0.00018876670481422206
-0.00018049954985885472
-0.00016396523994811996
-0.00015294236667429682
-0.00015569808499275262
-0.0001584538033112084
-0.000150186648355841
-0.00013089662012665053
-0.00011436231021591582
-0.00011436231021591582
-0.0001226294651712832
-0.0001198737468528274
-0.00010058371862363688
-8.404940871290214e-05
-8.404940871290214e-05
-8.956084534981374e-05
-8.680512703135793e-05
-6.751509880216745e-05
-3.720219729915378e-05
-3.4446478980697995e-05
-2.6179324025330647e-05
-4.133577477684346e-06
2.3423605706873515e-05
4.546935225451981e-05
6.200366216525454e-05
8.404940871290084e-05
0.00011987374685282605
0.0001694766765850302
0.000210812451361867
0.00023561391622796914
0.0002549039444571596
0.0002852168459601733
0.0003182854657816428
0.0003430869306477448
0.00035135408560311223
0.0003430869306477448
0.0003430869306477448
0.00034584264896620056
0.0003485983672846564
0.00033206405737392166
0.000301751155870908
0.00027970540932326175
0.0002686825360494386
0.0002549039444571596
0.00022459104295414594
0.00018876670481422076
0.00016120952162966288
0.00014467521171892812
0.00013089662012664922
0.00010885087357900291
7.578225375753347e-05
4.546935225451981e-05
3.169076066224089e-05
2.8935042343785094e-05
1.7912169069961946e-05
-1.377859159228559e-06
-2.066788738841907e-05
-3.169076066224221e-05
-3.169076066224221e-05
-3.4446478980697995e-05
-4.8225070572976926e-05
-6.751509880216745e-05
-7.027081712062322e-05
-6.475938048371164e-05
-5.9247943846800084e-05
-6.751509880216745e-05
-7.85379720759906e-05
-7.85379720759906e-05
-6.200366216525588e-05
-4.5469352254521147e-05
-4.2713633936065354e-05
-5.098078889143272e-05
-5.9247943846800084e-05
-4.8225070572976926e-05
-1.7912169069963278e-05
1.3778591592272275e-06
9.64501411459459e-06
9.64501411459459e-06
1.7912169069961946e-05
3.169076066224089e-05
3.9957915617608246e-05
2.3423605706873515e-05
1.3778591592272275e-06
6.8892957961388014e-06
-1.5156450751507488e-05
-4.8225070572976926e-05
-6.751509880216745e-05
-7.302653543907902e-05
-6.475938048371164e-05
-6.200366216525588e-05
-7.027081712062322e-05
-8.129369039444639e-05
-7.85379720759906e-05
-6.751509880216745e-05
-6.200366216525588e-05
-6.751509880216745e-05
-7.85379720759906e-05
-8.680512703135793e-05
-8.129369039444639e-05
-6.751509880216745e-05
-3.720219729915378e-05
8.404940871290084e-05
0.00038717842374303736
0.0008749405661097116
0.0013654584267948416
0.001660320286869611
0.0015693815823605698
0.001048550820172426
0.000392689860379949
-9.507228198672531e-05
-0.0002989954375524536
-0.0002686825360494398
-0.00021356816968032413
-0.00018601098649576628
-0.00016672095826657574
-0.00015294236667429682
-0.00015294236667429682
-0.00015569808499275262
-0.000150186648355841
-0.0001336523384451063
-0.0001198737468528274
-0.0001198737468528274
-0.00012538518348973897
-0.0001226294651712832
-0.00010885087357900426
-9.507228198672531e-05
-9.507228198672531e-05
-0.00010058371862363688
-0.00010058371862363688
-8.404940871290214e-05
-6.751509880216745e-05
-6.200366216525588e-05
-6.751509880216745e-05
-6.475938048371164e-05
-4.8225070572976926e-05
-2.066788738841907e-05
-4.133577477684346e-06
4.133577477683014e-06
1.5156450751506162e-05
4.546935225451981e-05
8.404940871290084e-05
0.00011987374685282605
0.00014743093003738393
0.00017498811322194178
0.00021632388799877858
0.00026592681773098274
0.000301751155870908
0.00032379690241855427
0.0003348197756923775
0.00037891126878767
0.000392689860379949
0.00038717842374303736
0.00036788839551384685
0.0003568655222400236
0.0003568655222400236
0.0003485983672846564
0.00032379690241855427
0.0002879725642786291
0.00025214822613870384
0.00023561391622796914
0.00022459104295414594
0.00019978957808804387
0.00016672095826657444
0.00013089662012664922
0.00010885087357900291
9.782800030517979e-05
7.853797207598924e-05
4.82250705729756e-05
2.066788738841773e-05
9.64501411459459e-06
6.8892957961388014e-06
-1.377859159228559e-06
-1.7912169069963278e-05
-3.720219729915378e-05
-4.2713633936065354e-05
-3.720219729915378e-05
-3.720219729915378e-05
-4.8225070572976926e-05
-6.751509880216745e-05
-7.302653543907902e-05
-6.475938048371164e-05
-5.3736507209888505e-05
-5.098078889143272e-05
-6.200366216525588e-05
-6.200366216525588e-05
-5.098078889143272e-05
-3.720219729915378e-05
-3.720219729915378e-05
-3.169076066224221e-05
-1.7912169069963278e-05
6.8892957961388014e-06
3.169076066224089e-05
3.9957915617608246e-05
3.169076066224089e-05
2.6179324025329308e-05
3.444647898069667e-05
3.720219729915245e-05
3.169076066224089e-05
1.7912169069961946e-05
-9.64501411459592e-06
-3.720219729915378e-05
-3.995791561760957e-05
-4.2713633936065354e-05
-6.200366216525588e-05
-7.57822537575348e-05
-7.85379720759906e-05
-6.751509880216745e-05
-5.9247943846800084e-05
-6.751509880216745e-05
-7.85379720759906e-05
-8.404940871290214e-05
-7.57822537575348e-05
-7.027081712062322e-05
-7.85379720759906e-05
-8.404940871290214e-05
1.3778591592272275e-06
0.00022459104295414594
0.0006324373540856024
0.0011339780880445555
0.0015390686808575565
0.0016658317235065223
0.0013571912718394743
0.0007068417486839086
8.404940871290084e-05
-0.00027970540932326305
-0.0003348197756923787
-0.00024939250782024937
-0.0001997895780880452
-0.00018601098649576628
-0.00018049954985885472
-0.00016947667658503157
-0.00015294236667429682
-0.0001391637750820179
-0.0001391637750820179
-0.00014191949340047367
-0.00014191949340047367
-0.00012814090180819475
-0.0001171180285343716
-0.00011436231021591582
-0.0001198737468528274
-0.0001171180285343716
-0.00010333943694209268
-8.404940871290214e-05
-7.57822537575348e-05
-8.129369039444639e-05
-8.129369039444639e-05
-6.751509880216745e-05
-4.5469352254521147e-05
-3.4446478980697995e-05
-3.4446478980697995e-05
-2.8935042343786426e-05
-9.64501411459592e-06
1.7912169069961946e-05
4.546935225451981e-05
6.475938048371032e-05
8.129369039444505e-05
0.00011436231021591448
0.00016396523994811866
0.00020805673304341124
0.00023285819790951333
0.0002576596627756154
0.0002879725642786291
0.00032379690241855427
0.00035135408560311223
0.0003596212405584795
0.00035410980392156795
0.0003485983672846564
0.00035410980392156795
0.00035135408560311223
0.00033206405737392166
0.0002989954375524522
0.0002741939726863501
0.00026592681773098274
0.0002576596627756154
0.00024388107118333642
0.0002190796063172344
0.00019427814145113231
0.00018876670481422076
0.0001970338597695881
0.00015845380331120705
0.00011987374685282605
0.00010609515526054714
9.782800030517979e-05
7.02708171206219e-05
4.271363393606403e-05
1.7912169069961946e-05
4.133577477683014e-06
-4.133577477684346e-06
-2.342360570687485e-05
-4.8225070572976926e-05
-6.475938048371164e-05
-7.302653543907902e-05
-6.475938048371164e-05
-5.9247943846800084e-05
-7.027081712062322e-05
-8.956084534981374e-05
-9.78280003051811e-05
-9.507228198672531e-05
-8.680512703135793e-05
-8.680512703135793e-05
-9.507228198672531e-05
-0.00010058371862363688
-9.231656366826955e-05
-8.129369039444639e-05
-5.3736507209888505e-05
1.7912169069961946e-05
0.00019152242313267648
0.0005635443961242077
0.0010981537499046305
0.0015528472724498353
0.0016989003433279916
0.001335145525291828
0.0005359872129396498
-0.0002190796063172357
-0.0005084300297550932
-0.0004147356069275966
-0.0002824611276417188
-0.00021632388799877996
-0.0001777438315403989
-0.00015294236667429682
-0.00014191949340047367
-0.00014467521171892948
-0.0001391637750820179
-0.00012538518348973897
-0.00011160659189746003
-0.00010885087357900426
-0.00011436231021591582
-0.0001171180285343716
-0.00010333943694209268
-8.404940871290214e-05
-7.85379720759906e-05
-8.404940871290214e-05
-8.404940871290214e-05
-7.302653543907902e-05
-5.3736507209888505e-05
-4.2713633936065354e-05
-3.720219729915378e-05
-3.720219729915378e-05
-2.342360570687485e-05
4.133577477683014e-06
2.6179324025329308e-05
3.9957915617608246e-05
5.373650720988717e-05
7.853797207598924e-05
0.00016672095826657444
0.0001970338597695881
0.00022459104295414594
0.00026041538109407124
0.00030450687418936376
0.000340331212329289
0.0003596212405584795
0.0003596212405584795
0.0003623769588769353
0.00037615555046921414
0.0003844227054245816
0.00037615555046921414
0.00035410980392156795
0.0003293083390554659
0.0003127740291447311
0.000301751155870908
0.0002769496910048059
0.00024112535286488067
0.00020805673304341124
0.00018601098649576498
0.0001694766765850302
0.00015018664835583973
0.00011436231021591448
7.578225375753347e-05
5.373650720988717e-05
4.546935225451981e-05
2.8935042343785094e-05
1.3778591592272275e-06
-2.6179324025330647e-05
-3.995791561760957e-05
-3.995791561760957e-05
-4.2713633936065354e-05
-5.6492225528344285e-05
-7.57822537575348e-05
-8.404940871290214e-05
-7.85379720759906e-05
-7.302653543907902e-05
-7.57822537575348e-05
-8.680512703135793e-05
-9.231656366826955e-05
-8.680512703135793e-05
-7.027081712062322e-05
-6.475938048371164e-05
-7.302653543907902e-05
-7.85379720759906e-05
-7.027081712062322e-05
-5.6492225528344285e-05
-5.098078889143272e-05
-5.9247943846800084e-05
-7.027081712062322e-05
-6.475938048371164e-05
-4.8225070572976926e-05
-3.720219729915378e-05
-4.5469352254521147e-05
-6.475938048371164e-05
-6.200366216525588e-05
-4.8225070572976926e-05
-4.2713633936065354e-05
-5.098078889143272e-05
-5.9247943846800084e-05
-5.9247943846800084e-05
-4.2713633936065354e-05
-2.6179324025330647e-05
-2.342360570687485e-05
-2.8935042343786426e-05
-1.7912169069963278e-05
1.3778591592272275e-06
1.5156450751506162e-05
1.7912169069961946e-05
2.3423605706873515e-05
3.169076066224089e-05
4.546935225451981e-05
4.546935225451981e-05
2.3423605706873515e-05
4.133577477683014e-06
-6.889295796140132e-06
-4.133577477684346e-06
-1.5156450751507488e-05
-4.8225070572976926e-05
-7.57822537575348e-05
-8.680512703135793e-05
-8.404940871290214e-05
-8.129369039444639e-05
-8.404940871290214e-05
-9.507228198672531e-05
-9.78280003051811e-05
-8.956084534981374e-05
-7.85379720759906e-05
-7.85379720759906e-05
-9.507228198672531e-05
-0.00010058371862363688
-8.404940871290214e-05
-5.6492225528344285e-05
3.444647898069667e-05
0.00027143825436789435
0.0006930631570916297
0.001180825299458304
0.001558358709086747
0.0016465416952773319
0.001318611215381093
0.000679284565499351
0.00010885087357900291
-0.0002080567330434125
-0.0002521482261387052
-0.0002108124513618684
-0.00020254529640650095
-0.00019152242313267784
-0.00017498811322194308
-0.00016396523994811996
-0.00016672095826657574
-0.00017223239490348733
-0.00016672095826657574
-0.000150186648355841
-0.0001364080567635621
-0.00014191949340047367
-0.00014191949340047367
-0.00014191949340047367
-0.00012538518348973897
-0.00010885087357900426
-0.00010333943694209268
-0.00011436231021591582
-0.00011436231021591582
-0.00010058371862363688
-8.404940871290214e-05
-7.85379720759906e-05
-7.85379720759906e-05
-7.85379720759906e-05
-6.475938048371164e-05
-3.720219729915378e-05
-1.7912169069963278e-05
-9.64501411459592e-06
2.8935042343785094e-05
6.475938048371032e-05
9.782800030517979e-05
0.00012262946517128183
0.00015018664835583973
0.00018601098649576498
0.00023010247959105753
0.0002686825360494386
0.0002879725642786291
0.0002989954375524522
0.000315529747463187
0.000340331212329289
0.0003568655222400236
0.0003568655222400236
0.00034584264896620056
0.0003375754940108332
0.0003348197756923775
0.00033206405737392166
0.000315529747463187
0.00029072828259708476
0.000263171099412527
0.00024663678950179223
0.00023285819790951333
0.00020530101472495543
0.000172232394903486
0.00014191949340047234
0.00012814090180819342
0.00011711802853437029
9.782800030517979e-05
7.02708171206219e-05
4.546935225451981e-05
2.8935042343785094e-05
2.3423605706873515e-05
1.7912169069961946e-05
-1.377859159228559e-06
-2.342360570687485e-05
-3.720219729915378e-05
-3.720219729915378e-05
-3.995791561760957e-05
-5.3736507209888505e-05
-7.302653543907902e-05
-8.129369039444639e-05
-7.302653543907902e-05
-7.027081712062322e-05
-8.129369039444639e-05
-9.231656366826955e-05
-8.956084534981374e-05
-7.302653543907902e-05
-5.6492225528344285e-05
-5.3736507209888505e-05
-5.3736507209888505e-05
-5.6492225528344285e-05
-4.5469352254521147e-05
-1.7912169069963278e-05
4.133577477683014e-06
9.64501411459459e-06
1.2400732433050376e-05
2.6179324025329308e-05
3.9957915617608246e-05
4.82250705729756e-05
3.444647898069667e-05
1.5156450751506162e-05
6.8892957961388014e-06
6.8892957961388014e-06
-6.889295796140132e-06
-7.302653543907902e-05
-8.404940871290214e-05
-8.129369039444639e-05
-7.85379720759906e-05
-8.956084534981374e-05
-0.00010333943694209268
-0.00010885087357900426
-0.00010058371862363688
-8.956084534981374e-05
-9.507228198672531e-05
-0.00010885087357900426
-0.0001171180285343716
-0.00011160659189746003
-0.00010058371862363688
-8.680512703135793e-05
-1.240073243305171e-05
0.00020805673304341124
0.0006407045090409697
0.0011753138628213923
0.0015886716105897604
0.0016851217517357133
0.001337901243610284
0.000676528847180895
8.129369039444505e-05
-0.00026592681773098404
-0.0003293083390554673
-0.00027143825436789566
-0.00023561391622797047
-0.0002108124513618684
-0.00019152242313267784
-0.00018876670481422206
-0.00019427814145113364
-0.00018876670481422206
-0.00017223239490348733
-0.00015294236667429682
-0.000150186648355841
-0.0001584538033112084
-0.00015569808499275262
-0.00014191949340047367
-0.00012538518348973897
-0.0001198737468528274
-0.00012814090180819475
-0.00012814090180819475
-0.00011160659189746003
-9.507228198672531e-05
-8.956084534981374e-05
-8.956084534981374e-05
-9.231656366826955e-05
-7.57822537575348e-05
-5.3736507209888505e-05
-3.720219729915378e-05
-2.6179324025330647e-05
-1.7912169069963278e-05
6.8892957961388014e-06
4.271363393606403e-05
7.853797207598924e-05
0.00010333943694209132
0.00012814090180819342
0.00016120952162966288
0.00020530101472495543
0.00024388107118333642
0.00026592681773098274
0.00027970540932326175
0.00029623971923399637
0.000315529747463187
0.0003293083390554659
0.00031001831082627527
0.00029072828259708476
0.0002852168459601733
0.0002824611276417174
0.00026041538109407124
0.00023010247959105753
0.0001970338597695881
0.00018049954985885336
0.00016672095826657444
0.00014467521171892812
0.00011160659189745871
7.578225375753347e-05
5.649222552834297e-05
4.546935225451981e-05
2.8935042343785094e-05
1.3778591592272275e-06
-2.342360570687485e-05
-3.720219729915378e-05
-3.720219729915378e-05
-4.2713633936065354e-05
-5.9247943846800084e-05
-7.85379720759906e-05
-8.956084534981374e-05
-8.404940871290214e-05
-7.85379720759906e-05
-8.404940871290214e-05
-0.00010058371862363688
-0.00011160659189746003
-0.00010609515526054846
-0.00010058371862363688
-0.00010333943694209268
-0.00011160659189746003
-0.00011160659189746003
-9.78280003051811e-05
-8.404940871290214e-05
-8.129369039444639e-05
-8.680512703135793e-05
-8.404940871290214e-05
-6.475938048371164e-05
-3.4446478980697995e-05
-1.5156450751507488e-05
-1.7912169069963278e-05
-2.8935042343786426e-05
-2.342360570687485e-05
-9.64501411459592e-06
-9.64501411459592e-06
-2.6179324025330647e-05
-4.5469352254521147e-05
-6.200366216525588e-05
-8.129369039444639e-05
-9.231656366826955e-05
-0.00010609515526054846
-0.00012538518348973897
-0.0001336523384451063
-0.0001226294651712832
-0.00011436231021591582
-0.0001171180285343716
-0.0001336523384451063
-0.0001391637750820179
-0.00012814090180819475
-0.0001171180285343716
-0.0001198737468528274
-0.0001364080567635621
-0.0001391637750820179
-5.6492225528344285e-05
0.00011436231021591448
0.0004505599450675205
0.0009107649042496368
0.0013268783703364606
0.0015225343709468217
0.001324122652018005
0.0007564446784161128
0.00015018664835583973
-0.00024112535286488197
-0.0003375754940108345
-0.00027694969100480727
-0.00024112535286488197
-0.00023285819790951464
-0.00022459104295414727
-0.00020254529640650095
-0.00018601098649576628
-0.00018601098649576628
-0.00018876670481422206
-0.00018876670481422206
-0.00017498811322194308
-0.0001612095216296642
-0.0001584538033112084
-0.00016947667658503157
-0.00016947667658503157
-0.00015569808499275262
-0.0001364080567635621
-0.0001336523384451063
-0.0001391637750820179
-0.00014467521171892948
-0.00013089662012665053
-0.00011160659189746003
-0.00010058371862363688
-9.78280003051811e-05
-9.78280003051811e-05
-8.404940871290214e-05
-6.200366216525588e-05
-3.995791561760957e-05
-2.6179324025330647e-05
-1.240073243305171e-05
1.2400732433050376e-05
5.098078889143139e-05
9.507228198672396e-05
0.0001253851834897376
0.00014743093003738393
0.00017498811322194178
0.00021632388799877858
0.0002493925078202481
0.000263171099412527
0.0002686825360494386
0.0002741939726863501
0.0002852168459601733
0.0002989954375524522
0.0002934840009155406
0.0002741939726863501
0.0002549039444571596
0.00024663678950179223
0.0002383696345464249
0.00021632388799877858
0.00018049954985885336
0.00014743093003738393
0.00013089662012664922
0.00011711802853437029
0.00010058371862363556
7.02708171206219e-05
1.5156450751506162e-05
6.8892957961388014e-06
-6.889295796140132e-06
-2.8935042343786426e-05
-5.098078889143272e-05
-6.751509880216745e-05
-6.475938048371164e-05
-6.751509880216745e-05
-7.85379720759906e-05
-9.507228198672531e-05
-0.00010609515526054846
-0.00010609515526054846
-0.00010058371862363688
-0.00010333943694209268
-0.00011160659189746003
-0.0001198737468528274
-0.00010885087357900426
-9.231656366826955e-05
-8.956084534981374e-05
-9.231656366826955e-05
-9.78280003051811e-05
-9.507228198672531e-05
-7.302653543907902e-05
-5.3736507209888505e-05
-4.5469352254521147e-05
-4.2713633936065354e-05
-3.720219729915378e-05
-2.066788738841907e-05
-9.64501411459592e-06
-1.5156450751507488e-05
-3.4446478980697995e-05
-4.5469352254521147e-05
-3.720219729915378e-05
-4.5469352254521147e-05
-7.85379720759906e-05
-0.00010885087357900426
-0.0001198737468528274
-0.00011436231021591582
-0.00010885087357900426
-0.0001198737468528274
-0.0001364080567635621
-0.00014191949340047367
-0.0001336523384451063
-0.0001226294651712832
-0.0001226294651712832
-0.0001336523384451063
-0.00014467521171892948
-0.00014467521171892948
-0.0001364080567635621
-0.00012538518348973897
-8.404940871290214e-05
5.9247943846798756e-05
0.00037615555046921414
0.000806047608148317
0.0011725581445029367
0.0013103440604257258
0.0011009094682230861
0.0006076358892195001
0.00010058371862363556
-0.00023836963454642628
-0.0003458426489662019
-0.0003045068741893651
-0.0002686825360494398
-0.0002466367895017936
-0.00022734676127260308
-0.0002218353246356915
-0.00022734676127260308
-0.0002108124513618684
-0.00018876670481422206
-0.00018601098649576628
-0.00019152242313267784
-0.00019427814145113364
-0.00018601098649576628
-0.00017498811322194308
-0.00016672095826657574
-0.00016947667658503157
-0.00017498811322194308
-0.00016672095826657574
-0.000150186648355841
-0.0001391637750820179
-0.00014191949340047367
-0.00014467521171892948
-0.0001336523384451063
-0.00011436231021591582
-9.507228198672531e-05
-8.680512703135793e-05
-8.404940871290214e-05
-7.027081712062322e-05
-3.995791561760957e-05
-9.64501411459592e-06
1.2400732433050376e-05
3.444647898069667e-05
5.9247943846798756e-05
9.782800030517979e-05
0.00013640805676356078
0.00016120952162966288
0.0001694766765850302
0.00018049954985885336
0.0001970338597695881
0.0002135681696803228
0.000210812451361867
0.00019978957808804387
0.00018876670481422076
0.00018601098649576498
0.0001832552681773092
0.00016672095826657444
0.00013916377508201656
0.00010885087357900291
9.23165636682682e-05
8.129369039444505e-05
7.02708171206219e-05
4.546935225451981e-05
1.5156450751506162e-05
-9.64501411459592e-06
-2.066788738841907e-05
-3.169076066224221e-05
-5.098078889143272e-05
-7.85379720759906e-05
-9.231656366826955e-05
-9.231656366826955e-05
-9.231656366826955e-05
-0.00010609515526054846
-0.0001226294651712832
-0.0001336523384451063
-0.0001336523384451063
-0.00012814090180819475
-0.0001364080567635621
-0.000150186648355841
-0.0001612095216296642
-0.0001584538033112084
-0.0001391637750820179
-0.0001364080567635621
-0.00014191949340047367
-0.0001336523384451063
-0.0001198737468528274
-0.00011160659189746003
-0.00010885087357900426
-0.00010609515526054846
-8.956084534981374e-05
-6.751509880216745e-05
-5.9247943846800084e-05
-6.475938048371164e-05
-7.57822537575348e-05
-7.57822537575348e-05
-7.302653543907902e-05
-7.302653543907902e-05
-8.680512703135793e-05
-0.0001171180285343716
-0.00014743093003738526
-0.00015294236667429682
-0.00015294236667429682
-0.00015569808499275262
-0.00016947667658503157
-0.00018049954985885472
-0.00017223239490348733
-0.0001584538033112084
-0.0001612095216296642
-0.00017498811322194308
-0.00018325526817731047
-0.00018049954985885472
-0.00016947667658503157
-0.00016947667658503157
-0.0001777438315403989
-0.00016947667658503157
-9.78280003051811e-05
8.956084534981241e-05
0.00041197988860913943
0.0007867575799191265
0.0010816194399938957
0.0011725581445029367
0.0009521006790264736
0.00047536140993362247
4.133577477683014e-06
-0.0002962397192339978
-0.0003513540856031135
-0.0002824611276417188
-0.00024388107118333775
-0.00023836963454642628
-0.0002466367895017936
-0.00024388107118333775
-0.00023010247959105888
-0.00021632388799877996
-0.00021356816968032413
-0.0002190796063172357
-0.0002218353246356915
-0.0002080567330434125
-0.00019152242313267784
-0.00018325526817731047
-0.00018876670481422206
-0.00019703385976958942
-0.00018876670481422206
-0.00017223239490348733
-0.00016672095826657574
-0.00017498811322194308
-0.00017498811322194308
-0.00016947667658503157
-0.0001336523384451063
-0.00013089662012665053
-0.00013089662012665053
-0.0001198737468528274
-9.507228198672531e-05
-6.751509880216745e-05
-5.3736507209888505e-05
-3.995791561760957e-05
-1.5156450751507488e-05
2.8935042343785094e-05
6.751509880216611e-05
9.782800030517979e-05
0.00011711802853437029
0.00013916377508201656
0.0001694766765850302
0.00019978957808804387
0.0002135681696803228
0.0002135681696803228
0.000210812451361867
0.00021632388799877858
0.00022459104295414594
0.0002218353246356902
0.00019978957808804387
0.00017498811322194178
0.00016396523994811866
0.0001556980849927513
0.00013916377508201656
0.00011160659189745871
7.853797207598924e-05
5.649222552834297e-05
4.546935225451981e-05
3.444647898069667e-05
6.8892957961388014e-06
-2.342360570687485e-05
-3.995791561760957e-05
-4.2713633936065354e-05
-4.5469352254521147e-05
-6.200366216525588e-05
-8.680512703135793e-05
-9.78280003051811e-05
-9.78280003051811e-05
-9.507228198672531e-05
-0.00010609515526054846
-0.0001226294651712832
-0.0001364080567635621
-0.0001336523384451063
-0.0001226294651712832
-0.0001226294651712832
-0.00013089662012665053
-0.0001336523384451063
-0.0001226294651712832
-0.00010609515526054846
-9.507228198672531e-05
-9.78280003051811e-05
-0.00010333943694209268
-8.404940871290214e-05
-5.098078889143272e-05
-2.8935042343786426e-05
-2.8935042343786426e-05
-3.4446478980697995e-05
-3.4446478980697995e-05
-2.342360570687485e-05
-1.5156450751507488e-05
-2.8935042343786426e-05
-4.5469352254521147e-05
-7.027081712062322e-05
-8.680512703135793e-05
-9.78280003051811e-05
-0.0001198737468528274
-0.0001364080567635621
-0.00013089662012665053
-0.00012814090180819475
-0.00012814090180819475
-0.0001364080567635621
-0.00014191949340047367
-0.0001364080567635621
-0.00012538518348973897
-0.00012814090180819475
-0.0001391637750820179
-0.000150186648355841
-0.00014467521171892948
-0.00010885087357900426
-4.133577477684346e-06
0.00023010247959105753
0.0006324373540856024
0.0010733522850385282
0.0013819927367055766
0.0013654584267948416
0.0009521006790264736
0.00035410980392156795
-0.0001226294651712832
-0.0003513540856031135
-0.0003375754940108345
-0.0002686825360494398
-0.00024939250782024937
-0.00023836963454642628
-0.0002190796063172357
-0.00020254529640650095
-0.00019703385976958942
-0.0001997895780880452
-0.00020254529640650095
-0.00019152242313267784
-0.00017498811322194308
-0.00016947667658503157
-0.00017498811322194308
-0.00017498811322194308
-0.00016396523994811996
-0.00014743093003738526
-0.0001391637750820179
-0.00014191949340047367
-0.00014743093003738526
-0.0001391637750820179
-0.0001198737468528274
-0.00010609515526054846
-0.00010609515526054846
-0.00010609515526054846
-9.507228198672531e-05
-7.302653543907902e-05
-4.8225070572976926e-05
-3.4446478980697995e-05
-2.342360570687485e-05
1.3778591592272275e-06
3.9957915617608246e-05
8.129369039444505e-05
0.00011711802853437029
0.00014191949340047234
0.0001694766765850302
0.00020530101472495543
0.00024112535286488067
0.000263171099412527
0.0002686825360494386
0.00027970540932326175
0.00029072828259708476
0.0002824611276417174
0.000263171099412527
0.00024112535286488067
0.00023010247959105753
0.0002218353246356902
0.00020805673304341124
0.00017774383154039756
0.00014467521171892812
0.00011987374685282605
0.00010333943694209132
8.68051270313566e-05
5.649222552834297e-05
2.3423605706873515e-05
-1.377859159228559e-06
-9.64501411459592e-06
-1.7912169069963278e-05
-3.4446478980697995e-05
-5.9247943846800084e-05
-7.57822537575348e-05
-7.57822537575348e-05
-7.027081712062322e-05
-7.57822537575348e-05
-9.507228198672531e-05
-0.00011160659189746003
-0.00010885087357900426
-0.00010333943694209268
-0.00010609515526054846
-0.00011436231021591582
-0.0001226294651712832
-0.0001198737468528274
-0.00010609515526054846
-0.00010058371862363688
-0.00010885087357900426
-0.0001171180285343716
-0.00011160659189746003
-8.956084534981374e-05
-6.200366216525588e-05
-5.098078889143272e-05
-4.8225070572976926e-05
-3.995791561760957e-05
-2.342360570687485e-05
-1.5156450751507488e-05
-2.066788738841907e-05
-3.995791561760957e-05
-5.6492225528344285e-05
-4.8225070572976926e-05
-4.8225070572976926e-05
-7.57822537575348e-05
-0.00010609515526054846
-0.0001226294651712832
-0.0001198737468528274
-0.00011160659189746003
-0.0001171180285343716
-0.00013089662012665053
-0.0001391637750820179
-0.0001336523384451063
-0.0001198737468528274
-0.0001171180285343716
-0.00012814090180819475
-0.00014191949340047367
-0.00014191949340047367
-0.00013089662012665053
-0.0001171180285343716
6.751509880216611e-05
0.00040371273365377215
0.0009024977492942696
0.0013627027084763858
0.0015886716105897604
0.0014178170748455018
0.000858406256198977
0.00022459104295414594
-0.0002080567330434125
-0.0003596212405584808
-0.0003127740291447324
-0.00025765966277561676
-0.0002218353246356915
-0.00019703385976958942
-0.00018876670481422206
-0.00019152242313267784
-0.00019427814145113364
-0.00018325526817731047
-0.00016396523994811996
-0.0001612095216296642
-0.00016396523994811996
-0.00016396523994811996
-0.00015569808499275262
-0.0001391637750820179
-0.00012814090180819475
-0.00012814090180819475
-0.0001336523384451063
-0.00012538518348973897
-0.00010885087357900426
-9.231656366826955e-05
-8.956084534981374e-05
-9.507228198672531e-05
-8.956084534981374e-05
-6.475938048371164e-05
-4.2713633936065354e-05
-3.720219729915378e-05
-3.4446478980697995e-05
-1.7912169069963278e-05
1.2400732433050376e-05
5.098078889143139e-05
8.129369039444505e-05
0.00010609515526054714
0.00013916377508201656
0.00018601098649576498
0.00023561391622796914
0.0002686825360494386
0.0002879725642786291
0.000301751155870908
0.00032104118410009855
0.0003430869306477448
0.0003485983672846564
0.000340331212329289
0.00032379690241855427
0.0003182854657816428
0.0003182854657816428
0.00030450687418936376
0.0002741939726863501
0.00024112535286488067
0.0002135681696803228
0.00019978957808804387
0.00018601098649576498
0.00015294236667429551
0.00011711802853437029
9.23165636682682e-05
7.578225375753347e-05
3.169076066224089e-05
-1.377859159228559e-06
-2.342360570687485e-05
-2.8935042343786426e-05
-2.8935042343786426e-05
-3.995791561760957e-05
-6.200366216525588e-05
-7.85379720759906e-05
-7.57822537575348e-05
-7.027081712062322e-05
-7.57822537575348e-05
-9.231656366826955e-05
-0.00010609515526054846
-0.00010333943694209268
-8.680512703135793e-05
-7.85379720759906e-05
-8.680512703135793e-05
-9.507228198672531e-05
-8.956084534981374e-05
-7.57822537575348e-05
-7.027081712062322e-05
-6.200366216525588e-05
-5.3736507209888505e-05
-3.4446478980697995e-05
-9.64501411459592e-06
6.8892957961388014e-06
4.133577477683014e-06
-4.133577477684346e-06
-1.240073243305171e-05
-9.64501411459592e-06
-6.889295796140132e-06
-1.5156450751507488e-05
-4.5469352254521147e-05
-8.129369039444639e-05
-8.956084534981374e-05
-8.129369039444639e-05
-8.680512703135793e-05
-0.00010058371862363688
-0.00011436231021591582
-0.00011160659189746003
-0.00010058371862363688
-9.78280003051811e-05
-0.00010885087357900426
-0.0001226294651712832
-0.0001226294651712832
-0.00011436231021591582
-0.00011436231021591582
-0.0001226294651712832
-0.00011160659189746003
-2.342360570687485e-05
0.00022459104295414594
0.0006682616922255276
0.001178069581139848
0.0015418243991760121
0.0015859158922713046
0.0011890924544136717
0.0005304757763027383
-3.720219729915378e-05
-0.0003485983672846577
-0.000370644113832304
-0.0002852168459601746
-0.00023561391622797047
-0.0002190796063172357
-0.00021632388799877996
-0.00021632388799877996
-0.00018601098649576628
-0.0001777438315403989
-0.00018049954985885472
-0.00018601098649576628
-0.00017498811322194308
-0.00015569808499275262
-0.00014467521171892948
-0.000150186648355841
-0.0001584538033112084
-0.000150186648355841
-0.00013089662012665053
-0.0001198737468528274
-0.0001198737468528274
-0.0001226294651712832
-0.0001198737468528274
-0.00010058371862363688
-8.129369039444639e-05
-7.57822537575348e-05
-7.302653543907902e-05
-6.475938048371164e-05
-3.720219729915378e-05
-1.377859159228559e-06
2.3423605706873515e-05
4.271363393606403e-05
7.02708171206219e-05
0.00011160659189745871
0.00015845380331120705
0.00019978957808804387
0.0002218353246356902
0.00024112535286488067
0.00027143825436789435
0.00030450687418936376
0.000315529747463187
0.00031001831082627527
0.00029623971923399637
0.00029623971923399637
0.0002989954375524522
0.00029072828259708476
0.0002686825360494386
0.00023010247959105753
0.00020530101472495543
0.00019427814145113231
0.00018049954985885336
0.00015294236667429551
0.00011987374685282605
9.23165636682682e-05
7.578225375753347e-05
6.475938048371032e-05
3.9957915617608246e-05
9.64501411459459e-06
-1.7912169069963278e-05
-2.6179324025330647e-05
-3.169076066224221e-05
-4.2713633936065354e-05
-6.475938048371164e-05
-8.129369039444639e-05
-8.404940871290214e-05
-7.57822537575348e-05
-7.85379720759906e-05
-9.78280003051811e-05
-0.00011160659189746003
-0.00011436231021591582
-0.00010609515526054846
-9.78280003051811e-05
-0.00010333943694209268
-0.00010885087357900426
-9.78280003051811e-05
-8.404940871290214e-05
-8.956084534981374e-05
-9.507228198672531e-05
-7.302653543907902e-05
-4.2713633936065354e-05
-1.7912169069963278e-05
-1.7912169069963278e-05
-2.342360570687485e-05
-2.6179324025330647e-05
-2.066788738841907e-05
-1.5156450751507488e-05
-2.342360570687485e-05
-4.2713633936065354e-05
-6.751509880216745e-05
-8.956084534981374e-05
-9.507228198672531e-05
-0.00010058371862363688
-0.0001171180285343716
-0.00012814090180819475
-0.00012814090180819475
-0.0001198737468528274
-0.0001171180285343716
-0.00012814090180819475
-0.0001364080567635621
-0.0001336523384451063
-0.0001226294651712832
-0.0001171180285343716
-0.0001336523384451063
-0.00014467521171892948
-0.0001364080567635621
-8.956084534981374e-05
5.373650720988717e-05
0.00035410980392156795
0.0008225819180590517
0.0012993211871519031
0.0015941830472266717
0.00151702293430991
0.0009879250171663987
0.0003072625925078196
-0.00019152242313267784
-0.00037339983215075977
-0.00031828546578164407
-0.00025765966277561676
-0.00024388107118333775
-0.00024112535286488197
-0.00022459104295414727
-0.00020530101472495681
-0.00019703385976958942
-0.0001997895780880452
-0.0001997895780880452
-0.00019152242313267784
-0.00016947667658503157
-0.00015569808499275262
-0.0001612095216296642
-0.00016947667658503157
-0.00016396523994811996
-0.00014743093003738526
-0.0001336523384451063
-0.0001336523384451063
-0.0001391637750820179
-0.0001391637750820179
-0.0001226294651712832
-0.00010333943694209268
-9.507228198672531e-05
-8.680512703135793e-05
-5.9247943846800084e-05
-3.169076066224221e-05
-1.240073243305171e-05
-1.377859159228559e-06
2.066788738841773e-05
5.9247943846798756e-05
0.00010609515526054714
0.00014467521171892812
0.000172232394903486
0.00019978957808804387
0.0002383696345464249
0.0002824611276417174
0.0003127740291447311
0.00032104118410009855
0.00032104118410009855
0.0003293083390554659
0.000340331212329289
0.000340331212329289
0.00032655262073701005
0.000301751155870908
0.0002852168459601733
0.0002769496910048059
0.00026041538109407124
0.00023010247959105753
0.00018876670481422076
0.00016396523994811866
0.00015294236667429551
0.00013640805676356078
0.00010609515526054714
7.30265354390777e-05
3.9957915617608246e-05
2.3423605706873515e-05
1.7912169069961946e-05
1.3778591592272275e-06
-2.342360570687485e-05
-4.5469352254521147e-05
-5.098078889143272e-05
-5.098078889143272e-05
-5.6492225528344285e-05
-7.302653543907902e-05
-8.956084534981374e-05
-9.507228198672531e-05
-8.680512703135793e-05
-8.680512703135793e-05
-0.00010058371862363688
-0.00011160659189746003
-0.00010609515526054846
-9.231656366826955e-05
-7.85379720759906e-05
-8.404940871290214e-05
-9.231656366826955e-05
-9.231656366826955e-05
-7.57822537575348e-05
-4.5469352254521147e-05
-2.8935042343786426e-05
-2.6179324025330647e-05
-2.066788738841907e-05
-6.889295796140132e-06
6.8892957961388014e-06
6.8892957961388014e-06
-9.64501411459592e-06
-2.6179324025330647e-05
-2.6179324025330647e-05
-2.342360570687485e-05
-8.680512703135793e-05
-0.00010609515526054846
-0.00010885087357900426
-0.00010333943694209268
-0.00010885087357900426
-0.0001198737468528274
-0.00012814090180819475
-0.00012538518348973897
-0.00011436231021591582
-0.00010885087357900426
-0.00011436231021591582
-0.00012538518348973897
-0.00013089662012665053
-0.0001226294651712832
-0.00011160659189746003
-7.85379720759906e-05
5.373650720988717e-05
0.00037615555046921414
0.0008832077210650791
0.0013709698634317533
0.0016272516670481415
0.0014729314412146172
0.0008997420309758136
0.00024663678950179223
-0.0002080567330434125
-0.00037615555046921565
-0.0003293083390554673
-0.00027143825436789566
-0.00024388107118333775
-0.0002190796063172357
-0.0002080567330434125
-0.0002108124513618684
-0.0002108124513618684
-0.0001997895780880452
-0.00018049954985885472
-0.00016672095826657574
-0.00016947667658503157
-0.00017498811322194308
-0.00016947667658503157
-0.00015294236667429682
-0.00014191949340047367
-0.00014467521171892948
-0.000150186648355841
-0.00014743093003738526
-0.00013089662012665053
-0.00011436231021591582
-0.00010885087357900426
-0.00011160659189746003
-0.00010609515526054846
-8.404940871290214e-05
-6.200366216525588e-05
-4.8225070572976926e-05
-3.995791561760957e-05
-2.8935042343786426e-05
4.133577477683014e-06
4.271363393606403e-05
7.578225375753347e-05
0.00010058371862363556
0.00012814090180819342
0.0001694766765850302
0.0002190796063172344
0.0002493925078202481
0.00026592681773098274
0.0002741939726863501
0.00029072828259708476
0.000315529747463187
0.00031001831082627527
0.0002934840009155406
0.0002741939726863501
0.0002686825360494386
0.0002549039444571596
0.0002218353246356902
0.00018049954985885336
0.00014743093003738393
0.00013640805676356078
0.00012814090180819342
0.00011160659189745871
8.404940871290084e-05
6.475938048371032e-05
5.9247943846798756e-05
6.475938048371032e-05
6.475938048371032e-05
4.546935225451981e-05
1.7912169069961946e-05
1.3778591592272275e-06
1.3778591592272275e-06
-1.240073243305171e-05
-3.720219729915378e-05
-5.9247943846800084e-05
-6.200366216525588e-05
-6.200366216525588e-05
-8.129369039444639e-05
-0.0001171180285343716
-0.0001391637750820179
-0.00014467521171892948
-0.0001391637750820179
-0.0001364080567635621
-0.00014467521171892948
-0.0001612095216296642
-0.00016947667658503157
-0.0001584538033112084
-0.00014743093003738526
-0.000150186648355841
-0.0001612095216296642
-0.0001612095216296642
-0.00015294236667429682
-0.0001364080567635621
-0.00011160659189746003
-4.5469352254521147e-05
0.00014191949340047234
0.0005414986495765614
0.0010650851300831607
0.001492221469443808
0.0015859158922713046
0.001169802426184481
0.00040371273365377215
-0.0002521482261387052
-0.0005056743114366376
-0.00043402563515678713
-0.0003293083390554673
-0.0002686825360494398
-0.00022734676127260308
-0.0002080567330434125
-0.00020530101472495681
-0.0002080567330434125
-0.0001997895780880452
-0.00018325526817731047
-0.00016947667658503157
-0.00016672095826657574
-0.00017223239490348733
-0.0001584538033112084
-0.00014191949340047367
-0.0001364080567635621
-0.00014191949340047367
-0.00014191949340047367
-0.00012538518348973897
-0.00010609515526054846
-9.78280003051811e-05
-9.78280003051811e-05
-9.78280003051811e-05
-8.129369039444639e-05
-5.3736507209888505e-05
-3.169076066224221e-05
-2.066788738841907e-05
-6.889295796140132e-06
2.3423605706873515e-05
6.475938048371032e-05
0.00010885087357900291
0.00013916377508201656
0.00016396523994811866
0.00019978957808804387
0.00024388107118333642
0.00027970540932326175
0.00029623971923399637
0.0002934840009155406
0.0002989954375524522
0.000315529747463187
0.00032104118410009855
0.00031001831082627527
0.00029072828259708476
0.0002686825360494386
0.0002549039444571596
0.0002493925078202481
0.00022459104295414594
0.00018601098649576498
0.00015294236667429551
0.00013365233844510492
0.00011987374685282605
9.23165636682682e-05
5.9247943846798756e-05
2.6179324025329308e-05
9.64501411459459e-06
1.3778591592272275e-06
-1.5156450751507488e-05
-3.995791561760957e-05
-6.200366216525588e-05
-7.302653543907902e-05
-7.302653543907902e-05
-7.57822537575348e-05
-9.231656366826955e-05
-0.00011160659189746003
-0.0001198737468528274
-0.0001171180285343716
-0.0001171180285343716
-0.00012814090180819475
-0.00014191949340047367
-0.00014467521171892948
-0.0001364080567635621
-0.00012814090180819475
-0.0001336523384451063
-0.00014467521171892948
-0.00014743093003738526
-0.0001336523384451063
-0.0001171180285343716
-0.00011160659189746003
-0.00012538518348973897
-0.0001171180285343716
-0.00010333943694209268
-9.78280003051811e-05
-0.00010609515526054846
-0.0001198737468528274
-0.0001171180285343716
-0.00010333943694209268
-9.507228198672531e-05
-9.78280003051811e-05
-0.00010058371862363688
-9.507228198672531e-05
-7.85379720759906e-05
-6.200366216525588e-05
-7.027081712062322e-05
-8.129369039444639e-05
-7.027081712062322e-05
-4.2713633936065354e-05
-1.5156450751507488e-05
-9.64501411459592e-06
-2.066788738841907e-05
-2.8935042343786426e-05
-2.342360570687485e-05
-2.066788738841907e-05
-3.4446478980697995e-05
-5.6492225528344285e-05
-7.57822537575348e-05
-9.231656366826955e-05
-0.00010058371862363688
-0.00011160659189746003
-0.00012814090180819475
-0.00014467521171892948
-0.00014467521171892948
-0.0001364080567635621
-0.0001364080567635621
-0.00014191949340047367
-0.00014743093003738526
-0.00014191949340047367
-0.00013089662012665053
-0.00013089662012665053
-0.0001391637750820179
-0.00014467521171892948
-0.00012538518348973897
-6.889295796140132e-06
0.0002769496910048059
0.0007233760585946433
0.0011890924544136717
0.0015252900892652771
0.0015666258640421142
0.0011918481727321271
0.0005442543678950173
-1.7912169069963278e-05
-0.0003127740291447324
-0.00032379690241855563
-0.0002604153810940725
-0.00024388107118333775
-0.0002466367895017936
-0.0002466367895017936
-0.00023561391622797047
-0.0002190796063172357
-0.00020530101472495681
-0.00020530101472495681
-0.0002108124513618684
-0.0001997895780880452
-0.00018601098649576628
-0.0001777438315403989
-0.00018876670481422206
-0.00018049954985885472
-0.00016396523994811996
-0.00015294236667429682
-0.000150186648355841
-0.00015569808499275262
-0.000150186648355841
-0.0001336523384451063
-0.0001171180285343716
-0.00011160659189746003
-0.00011160659189746003
-0.00010609515526054846
-8.404940871290214e-05
-5.3736507209888505e-05
-3.720219729915378e-05
-2.6179324025330647e-05
-4.133577477684346e-06
3.444647898069667e-05
7.853797207598924e-05
0.00011711802853437029
0.00013916377508201656
0.00016120952162966288
0.0001970338597695881
0.00023561391622796914
0.0002576596627756154
0.000263171099412527
0.00026592681773098274
0.0002769496910048059
0.00029072828259708476
0.0002934840009155406
0.0002852168459601733
0.0002686825360494386
0.0002493925078202481
0.00024388107118333642
0.00023561391622796914
0.00020805673304341124
0.000172232394903486
0.00015018664835583973
0.00013916377508201656
0.0001253851834897376
0.00010058371862363556
6.751509880216611e-05
3.9957915617608246e-05
2.066788738841773e-05
1.2400732433050376e-05
-1.377859159228559e-06
-2.8935042343786426e-05
-5.3736507209888505e-05
-6.475938048371164e-05
-6.751509880216745e-05
-7.027081712062322e-05
-8.404940871290214e-05
-0.00010609515526054846
-0.00011160659189746003
-0.00010609515526054846
-0.00010885087357900426
-0.0001226294651712832
-0.0001391637750820179
-0.00014467521171892948
-0.0001364080567635621
-0.00012814090180819475
-0.00012538518348973897
-0.00013089662012665053
-0.00012538518348973897
-0.00011160659189746003
-9.231656366826955e-05
-9.507228198672531e-05
-8.129369039444639e-05
-5.3736507209888505e-05
-2.8935042343786426e-05
-2.342360570687485e-05
-3.169076066224221e-05
-3.4446478980697995e-05
-2.6179324025330647e-05
-2.342360570687485e-05
-3.4446478980697995e-05
-5.098078889143272e-05
-7.57822537575348e-05
-0.00010333943694209268
-0.00011160659189746003
-0.0001171180285343716
-0.0001364080567635621
-0.00015294236667429682
-0.00015569808499275262
-0.00014743093003738526
-0.0001391637750820179
-0.00014467521171892948
-0.00015294236667429682
-0.00015569808499275262
-0.00014467521171892948
-0.00014191949340047367
-0.00015294236667429682
-0.00016396523994811996
-0.00016396523994811996
-0.00010885087357900426
5.9247943846798756e-05
0.0003982012970168605
0.0008501391012436096
0.001244206820782787
0.0014343513847562366
0.0012552296940566102
0.0007288874952315547
0.00014191949340047234
-0.00025765966277561676
-0.00037615555046921565
-0.0003127740291447324
-0.0002631710994125282
-0.00025765966277561676
-0.00025765966277561676
-0.00024388107118333775
-0.00022459104295414727
-0.00021356816968032413
-0.0002190796063172357
-0.00022459104295414727
-0.00021632388799877996
-0.00020254529640650095
-0.00018876670481422206
-0.00019427814145113364
-0.00020254529640650095
-0.00020254529640650095
-0.00018876670481422206
-0.00017223239490348733
-0.00017223239490348733
-0.00017498811322194308
-0.00017498811322194308
-0.0001612095216296642
-0.00014191949340047367
-0.00013089662012665053
-0.00013089662012665053
-0.00012814090180819475
-8.129369039444639e-05
-6.200366216525588e-05
-4.8225070572976926e-05
-3.4446478980697995e-05
-4.133577477684346e-06
3.720219729915245e-05
7.30265354390777e-05
9.782800030517979e-05
0.00012262946517128183
0.00014743093003738393
0.0001832552681773092
0.00020530101472495543
0.00020530101472495543
0.0001970338597695881
0.00019978957808804387
0.00020530101472495543
0.00020530101472495543
0.00018876670481422076
0.00016396523994811866
0.00014191949340047234
0.00012814090180819342
0.00011711802853437029
9.23165636682682e-05
5.9247943846798756e-05
3.169076066224089e-05
2.066788738841773e-05
9.64501411459459e-06
-9.64501411459592e-06
-3.720219729915378e-05
-6.475938048371164e-05
-7.57822537575348e-05
-7.85379720759906e-05
-8.956084534981374e-05
-0.00010609515526054846
-0.00012538518348973897
-0.00012814090180819475
-0.0001226294651712832
-0.0001226294651712832
-0.0001391637750820179
-0.00015569808499275262
-0.0001612095216296642
-0.00015294236667429682
-0.00015294236667429682
-0.00016672095826657574
-0.00017498811322194308
-0.00017498811322194308
-0.0001612095216296642
-0.00014743093003738526
-0.000150186648355841
-0.00015569808499275262
-0.0001584538033112084
-0.00014743093003738526
-0.00013089662012665053
-0.00011436231021591582
-0.00010609515526054846
-0.00010058371862363688
-8.680512703135793e-05
-7.027081712062322e-05
-7.027081712062322e-05
-8.404940871290214e-05
-9.78280003051811e-05
-0.00010333943694209268
-9.78280003051811e-05
-0.00010609515526054846
-0.00014467521171892948
-0.0001777438315403989
-0.00017498811322194308
-0.00017223239490348733
-0.00018325526817731047
-0.00019703385976958942
-0.0001997895780880452
-0.00018876670481422206
-0.00018049954985885472
-0.00018325526817731047
-0.00019703385976958942
-0.0001997895780880452
-0.00019427814145113364
-0.00018325526817731047
-0.00017498811322194308
-0.0001391637750820179
-4.133577477684346e-06
0.0002852168459601733
0.0006903074387731741
0.0010402836652170589
0.0011946038910505827
0.0010430393835355147
0.000599368734264133
0.00010609515526054714
-0.00024388107118333775
-0.00037615555046921565
-0.0003430869306477461
-0.00030175115587090934
-0.00027694969100480727
-0.0002604153810940725
-0.0002604153810940725
-0.0002686825360494398
-0.0002631710994125282
-0.00024939250782024937
-0.00023285819790951464
-0.00023561391622797047
-0.00024388107118333775
-0.00024112535286488197
-0.00022459104295414727
-0.0002080567330434125
-0.0002080567330434125
-0.00021632388799877996
-0.00021632388799877996
-0.00020254529640650095
-0.00018876670481422206
-0.00018325526817731047
-0.00019152242313267784
-0.00019152242313267784
-0.0001777438315403989
-0.00015569808499275262
-0.00014191949340047367
-0.0001391637750820179
-0.0001336523384451063
-0.00011436231021591582
-7.85379720759906e-05
-4.8225070572976926e-05
-2.8935042343786426e-05
-1.240073243305171e-05
1.5156450751506162e-05
5.649222552834297e-05
9.23165636682682e-05
0.00011436231021591448
0.0001253851834897376
0.00013916377508201656
0.00016396523994811866
0.0001832552681773092
0.0001694766765850302
0.00016396523994811866
0.00016120952162966288
0.00016396523994811866
0.00014743093003738393
0.00011436231021591448
8.956084534981241e-05
7.578225375753347e-05
6.475938048371032e-05
4.546935225451981e-05
1.5156450751506162e-05
-1.7912169069963278e-05
-3.169076066224221e-05
-3.720219729915378e-05
-5.098078889143272e-05
-8.129369039444639e-05
-0.00010885087357900426
-0.0001226294651712832
-0.0001171180285343716
-0.0001171180285343716
-0.0001336523384451063
-0.0001584538033112084
-0.00016396523994811996
-0.0001584538033112084
-0.00015569808499275262
-0.0001612095216296642
-0.00018049954985885472
-0.00018601098649576628
-0.00018049954985885472
-0.00017223239490348733
-0.00017223239490348733
-0.0001777438315403989
-0.0001777438315403989
-0.00016672095826657574
-0.000150186648355841
-0.00014191949340047367
-0.000150186648355841
-0.000150186648355841
-0.00013089662012665053
-0.00010333943694209268
-8.680512703135793e-05
-9.231656366826955e-05
-0.00010058371862363688
-9.507228198672531e-05
-8.404940871290214e-05
-8.680512703135793e-05
-0.00010609515526054846
-0.0001226294651712832
-0.0001336523384451063
-0.00014743093003738526
-0.0001584538033112084
-0.00017498811322194308
-0.00019152242313267784
-0.0001997895780880452
-0.00018876670481422206
-0.00018049954985885472
-0.00018601098649576628
-0.00019703385976958942
-0.0002080567330434125
-0.0001997895780880452
-0.00018325526817731047
-0.00018876670481422206
-0.00020530101472495681
-0.0002080567330434125
-0.00018601098649576628
-0.00011160659189746003
0.0003816669871061258
0.0007729789883268476
0.001089886594949263
0.0011890924544136717
0.0009465892423895617
0.0004422927901121532
-3.995791561760957e-05
-0.0003348197756923787
-0.0003816669871061273
-0.0003155297474631883
-0.00028797256427863044
-0.00029348400091554195
-0.0002852168459601746
-0.0002604153810940725
-0.00024388107118333775
-0.00024388107118333775
-0.00024939250782024937
-0.00024939250782024937
-0.00023561391622797047
-0.00022459104295414727
-0.0002218353246356915
-0.00023010247959105888
-0.00023285819790951464
-0.00021632388799877996
-0.00019703385976958942
-0.00019152242313267784
-0.0001997895780880452
-0.0001997895780880452
-0.00018876670481422206
-0.00017223239490348733
-0.0001612095216296642
-0.0001584538033112084
-0.0001584538033112084
-0.00014743093003738526
-0.0001198737468528274
-9.231656366826955e-05
-8.129369039444639e-05
-7.027081712062322e-05
-3.995791561760957e-05
-4.133577477684346e-06
3.169076066224089e-05
5.9247943846798756e-05
7.853797207598924e-05
0.00010885087357900291
0.00014467521171892812
0.00017774383154039756
0.00019152242313267648
0.00019427814145113231
0.00019427814145113231
0.00020530101472495543
0.0002135681696803228
0.00020805673304341124
0.00018601098649576498
0.00016672095826657444
0.00015845380331120705
0.00014467521171892812
0.0001253851834897376
9.23165636682682e-05
5.9247943846798756e-05
4.271363393606403e-05
3.444647898069667e-05
1.5156450751506162e-05
-1.240073243305171e-05
-3.995791561760957e-05
-5.3736507209888505e-05
-6.751509880216745e-05
-8.404940871290214e-05
-0.00010885087357900426
-0.0001198737468528274
-0.0001198737468528274
-0.0001198737468528274
-0.00013089662012665053
-0.00014743093003738526
-0.0001584538033112084
-0.00015569808499275262
-0.00015294236667429682
-0.00015569808499275262
-0.00016947667658503157
-0.00017223239490348733
-0.0001612095216296642
-0.00014743093003738526
-0.00014467521171892948
-0.00015294236667429682
-0.00015569808499275262
-0.00014467521171892948
-0.00013089662012665053
-0.0001171180285343716
-0.00010885087357900426
-0.00010333943694209268
-8.956084534981374e-05
-7.027081712062322e-05
-6.200366216525588e-05
-6.751509880216745e-05
-7.85379720759906e-05
-8.404940871290214e-05
-8.129369039444639e-05
-7.85379720759906e-05
-0.00010609515526054846
-0.00014467521171892948
-0.0001584538033112084
-0.00015294236667429682
-0.000150186648355841
-0.0001584538033112084
-0.00017498811322194308
-0.00018049954985885472
-0.00016947667658503157
-0.0001584538033112084
-0.0001612095216296642
-0.00017223239490348733
-0.00018049954985885472
-0.00017223239490348733
-0.00016672095826657574
-0.00016396523994811996
-0.00015569808499275262
-8.680512703135793e-05
0.00013365233844510492
0.0005442543678950173
0.0010265050736247801
0.0013847484550240322
0.0014426185397116034
0.0011064209048599978
0.0005166971847104594
-1.240073243305171e-05
-0.0003375754940108345
-0.0003871784237430386
-0.00031828546578164407
-0.00027143825436789566
-0.00024939250782024937
-0.00024388107118333775
-0.00024388107118333775
-0.00022734676127260308
-0.0002080567330434125
-0.00020530101472495681
-0.0002080567330434125
-0.0002080567330434125
-0.00019703385976958942
-0.00018049954985885472
-0.00017498811322194308
-0.00018325526817731047
-0.00018325526817731047
-0.00017223239490348733
-0.000150186648355841
-0.00014191949340047367
-0.00014191949340047367
-0.00014467521171892948
-0.0001364080567635621
-0.0001171180285343716
-0.00010058371862363688
-9.231656366826955e-05
-8.956084534981374e-05
-6.751509880216745e-05
-3.4446478980697995e-05
-1.377859159228559e-06
2.6179324025329308e-05
4.82250705729756e-05
8.129369039444505e-05
0.00012814090180819342
0.00017774383154039756
0.0002135681696803228
0.00023285819790951333
0.0002549039444571596
0.0002824611276417174
0.0003072625925078196
0.0003127740291447311
0.000301751155870908
0.00029072828259708476
0.00029072828259708476
0.00029072828259708476
0.0002824611276417174
0.0002549039444571596
0.0002218353246356902
0.0001970338597695881
0.0001832552681773092
0.00016396523994811866
0.00012814090180819342
9.23165636682682e-05
6.751509880216611e-05
5.9247943846798756e-05
3.9957915617608246e-05
6.8892957961388014e-06
-2.342360570687485e-05
-3.995791561760957e-05
-4.5469352254521147e-05
-5.098078889143272e-05
-6.751509880216745e-05
-8.956084534981374e-05
-0.00010885087357900426
-0.00011160659189746003
-0.00011160659189746003
-0.0001171180285343716
-0.00013089662012665053
-0.00014467521171892948
-0.0001391637750820179
-0.00013089662012665053
-0.00013089662012665053
-0.00014467521171892948
-0.0001336523384451063
-0.0001171180285343716
-0.00010609515526054846
-0.00011436231021591582
-0.0001171180285343716
-9.78280003051811e-05
-6.751509880216745e-05
-4.5469352254521147e-05
-3.995791561760957e-05
-4.5469352254521147e-05
-4.5469352254521147e-05
-3.4446478980697995e-05
-3.169076066224221e-05
-4.8225070572976926e-05
-6.751509880216745e-05
-8.129369039444639e-05
-9.78280003051811e-05
-0.00011160659189746003
-0.00012538518348973897
-0.00014467521171892948
-0.00015569808499275262
-0.00015294236667429682
-0.00014467521171892948
-0.00014743093003738526
-0.0001612095216296642
-0.00017223239490348733
-0.00016396523994811996
-0.000150186648355841
-0.00015294236667429682
-0.00016947667658503157
-0.00018049954985885472
-0.00017223239490348733
-0.00012814090180819475
1.5156450751506162e-05
0.000315529747463187
0.0007867575799191265
0.0012745197222858006
0.0015721373006790259
0.0014784428778515288
0.0009355663691157388
0.0002576596627756154
-0.00023010247959105888
-0.00041197988860914084
-0.00036237695887693665
-0.00030175115587090934
-0.00028797256427863044
-0.00027970540932326305
-0.0002604153810940725
-0.00024388107118333775
-0.00023561391622797047
-0.00023836963454642628
-0.00023836963454642628
-0.00022734676127260308
-0.0002108124513618684
-0.00020530101472495681
-0.0002108124513618684
-0.00021356816968032413
-0.00020254529640650095
-0.00018601098649576628
-0.0001777438315403989
-0.00018049954985885472
-0.00018325526817731047
-0.00017223239490348733
-0.000150186648355841
-0.0001364080567635621
-0.0001364080567635621
-0.00012538518348973897
-0.00010058371862363688
-7.302653543907902e-05
-5.9247943846800084e-05
-4.5469352254521147e-05
-2.342360570687485e-05
2.066788738841773e-05
6.475938048371032e-05
9.782800030517979e-05
0.0001253851834897376
0.0001556980849927513
0.0001970338597695881
0.00023561391622796914
0.0002549039444571596
0.00026041538109407124
0.000263171099412527
0.00027143825436789435
0.0002769496910048059
0.0002741939726863501
0.0002549039444571596
0.00022734676127260172
0.0002135681696803228
0.00020530101472495543
0.00018876670481422076
0.0001556980849927513
0.00012262946517128183
9.782800030517979e-05
8.404940871290084e-05
6.751509880216611e-05
3.9957915617608246e-05
6.8892957961388014e-06
-1.7912169069963278e-05
-2.8935042343786426e-05
-3.720219729915378e-05
-5.3736507209888505e-05
-7.85379720759906e-05
-9.78280003051811e-05
-9.78280003051811e-05
-9.78280003051811e-05
-0.00010885087357900426
-0.00012538518348973897
-0.0001364080567635621
-0.0001336523384451063
-0.00012538518348973897
-0.00013089662012665053
-0.00014743093003738526
-0.00015569808499275262
-0.000150186648355841
-0.0001364080567635621
-0.00012814090180819475
-0.0001336523384451063
-0.0001391637750820179
-0.0001336523384451063
-0.0001198737468528274
-0.00010058371862363688
-9.231656366826955e-05
-8.680512703135793e-05
-7.57822537575348e-05
-5.9247943846800084e-05
-5.098078889143272e-05
-5.6492225528344285e-05
-6.751509880216745e-05
-8.404940871290214e-05
-8.404940871290214e-05
-0.00010885087357900426
-0.00014743093003738526
-0.00016396523994811996
-0.00016672095826657574
-0.0001584538033112084
-0.0001584538033112084
-0.00017498811322194308
-0.00018601098649576628
-0.0001777438315403989
-0.00016672095826657574
-0.0001612095216296642
-0.00016672095826657574
-0.00017498811322194308
-0.0001777438315403989
-0.00016947667658503157
-0.0001612095216296642
-0.00015569808499275262
-8.404940871290214e-05
0.00013365233844510492
0.0005552772411688404
0.0010705965667200726
0.00146466428625925
0.0015611144274052025
0.001224916792553597
0.0005828344243533982
1.3778591592272275e-06
-0.0003430869306477461
-0.00040922417029068495
-0.0003375754940108345
-0.00028797256427863044
-0.0002631710994125282
-0.0002549039444571609
-0.0002604153810940725
-0.0002604153810940725
-0.0002466367895017936
-0.00022734676127260308
-0.00021632388799877996
-0.0002218353246356915
-0.00022734676127260308
-0.0002218353246356915
-0.00020254529640650095
-0.00019152242313267784
-0.00019703385976958942
-0.00020254529640650095
-0.00019427814145113364
-0.0001777438315403989
-0.0001612095216296642
-0.0001612095216296642
-0.00016672095826657574
-0.00015569808499275262
-0.0001336523384451063
-0.00011436231021591582
-0.00010333943694209268
-9.78280003051811e-05
-8.680512703135793e-05
-5.3736507209888505e-05
-1.7912169069963278e-05
1.2400732433050376e-05
3.720219729915245e-05
6.751509880216611e-05
0.00011436231021591448
0.00016672095826657444
0.00020254529640649968
0.00022459104295414594
0.00024388107118333642
0.0002989954375524522
0.0003127740291447311
0.000301751155870908
0.00029072828259708476
0.0002879725642786291
0.0002879725642786291
0.0002769496910048059
0.0002493925078202481
0.00021632388799877858
0.00018876670481422076
0.00017498811322194178
0.0001556980849927513
0.00012262946517128183
8.956084534981241e-05
6.200366216525454e-05
4.271363393606403e-05
2.3423605706873515e-05
-4.133577477684346e-06
-3.4446478980697995e-05
-5.6492225528344285e-05
-6.751509880216745e-05
-7.027081712062322e-05
-8.404940871290214e-05
-0.00010333943694209268
-0.0001198737468528274
-0.0001198737468528274
-0.00011436231021591582
-0.0001198737468528274
-0.0001391637750820179
-0.00015294236667429682
-0.0001584538033112084
-0.000150186648355841
-0.00014467521171892948
-0.000150186648355841
-0.00015569808499275262
-0.00015294236667429682
-0.0001364080567635621
-0.00012538518348973897
-0.00012814090180819475
-0.0001364080567635621
-0.0001226294651712832
-9.231656366826955e-05
-6.751509880216745e-05
-6.200366216525588e-05
-6.475938048371164e-05
-6.751509880216745e-05
-5.3736507209888505e-05
-4.2713633936065354e-05
-5.9247943846800084e-05
-7.85379720759906e-05
-9.231656366826955e-05
-0.00010885087357900426
-0.0001198737468528274
-0.00013089662012665053
-0.00015294236667429682
-0.00016672095826657574
-0.00016396523994811996
-0.00015569808499275262
-0.00015294236667429682
-0.0001612095216296642
-0.00017223239490348733
-0.00016947667658503157
-0.0001584538033112084
-0.00015294236667429682
-0.00016672095826657574
-0.00018601098649576628
-0.00015569808499275262
-5.3736507209888505e-05
0.00018876670481422076
0.0006186587624933234
0.0011312223697260999
0.00151702293430991
0.0015748930189974813
0.001169802426184481
0.00048362856488898997
-9.507228198672531e-05
-0.0003844227054245829
-0.0003899341420614945
-0.00031828546578164407
-0.00029348400091554195
-0.0002852168459601746
-0.0002631710994125282
-0.00024388107118333775
-0.00023561391622797047
-0.00024112535286488197
-0.00024388107118333775
-0.00023285819790951464
-0.00021356816968032413
-0.00020530101472495681
-0.0002080567330434125
-0.0002108124513618684
-0.0002080567330434125
-0.00019427814145113364
-0.00018325526817731047
-0.00018601098649576628
-0.00019152242313267784
-0.00018601098649576628
-0.00016672095826657574
-0.000150186648355841
-0.00014467521171892948
-0.00014467521171892948
-0.0001364080567635621
-0.00011436231021591582
-8.404940871290214e-05
-6.751509880216745e-05
-5.6492225528344285e-05
-3.995791561760957e-05
1.3778591592272275e-06
4.82250705729756e-05
8.68051270313566e-05
0.00011160659189745871
0.00014191949340047234
0.00017774383154039756
0.00021632388799877858
0.00024112535286488067
0.00024663678950179223
0.00025214822613870384
0.000263171099412527
0.00027143825436789435
0.00027143825436789435
0.0002549039444571596
0.00023285819790951333
0.000210812451361867
0.00020254529640649968
0.00018601098649576498
0.00015294236667429551
0.00011711802853437029
8.956084534981241e-05
7.30265354390777e-05
5.649222552834297e-05
-1.377859159228559e-06
-2.6179324025330647e-05
-3.995791561760957e-05
-4.8225070572976926e-05
-6.475938048371164e-05
-8.956084534981374e-05
-0.00010609515526054846
-0.00010885087357900426
-0.00010609515526054846
-0.00011160659189746003
-0.00013089662012665053
-0.00014743093003738526
-0.000150186648355841
-0.00014191949340047367
-0.00014191949340047367
-0.0001584538033112084
-0.00017223239490348733
-0.00016947667658503157
-0.00015569808499275262
-0.00014743093003738526
-0.000150186648355841
-0.00015569808499275262
-0.00015569808499275262
-0.00014191949340047367
-0.00012538518348973897
-0.00011160659189746003
-0.00010333943694209268
-9.231656366826955e-05
-7.57822537575348e-05
-6.200366216525588e-05
-6.475938048371164e-05
-7.57822537575348e-05
-8.680512703135793e-05
-9.231656366826955e-05
-8.680512703135793e-05
-9.78280003051811e-05
-0.0001391637750820179
-0.00016672095826657574
-0.00017223239490348733
-0.00016947667658503157
-0.00016947667658503157
-0.00018049954985885472
-0.00019427814145113364
-0.00019152242313267784
-0.00018049954985885472
-0.00016947667658503157
-0.0001777438315403989
-0.00018876670481422206
-0.00018876670481422206
-0.00018325526817731047
-0.0001777438315403989
-0.00018049954985885472
-0.00015569808499275262
-1.7912169069963278e-05
0.0003127740291447311
0.00081707048142214
0.0012965654688334468
0.0015528472724498353
0.0014288399481193247
0.0008997420309758136
0.00024663678950179223
-0.00022459104295414727
-0.0004202470435645082
-0.0003816669871061273
-0.0003210411841000998
-0.00027419397268635144
-0.00027694969100480727
-0.00027970540932326305
-0.0002686825360494398
-0.0002521482261387052
-0.00024112535286488197
-0.00023561391622797047
-0.00024112535286488197
-0.00023285819790951464
-0.00021632388799877996
-0.0002080567330434125
-0.0002108124513618684
-0.00021356816968032413
-0.0002108124513618684
-0.00019427814145113364
-0.00018049954985885472
-0.00017498811322194308
-0.00018049954985885472
-0.0001777438315403989
-0.0001584538033112084
-0.0001391637750820179
-0.00013089662012665053
-0.00012538518348973897
-0.00011436231021591582
-8.680512703135793e-05
-4.8225070572976926e-05
-1.7912169069963278e-05
4.133577477683014e-06
3.169076066224089e-05
7.578225375753347e-05
0.0001253851834897376
0.00016396523994811866
0.00018876670481422076
0.00020805673304341124
0.00023285819790951333
0.000263171099412527
0.00027970540932326175
0.00027970540932326175
0.00027143825436789435
0.0002686825360494386
0.00027143825436789435
0.00026592681773098274
0.0002383696345464249
0.00020805673304341124
0.00018049954985885336
0.00016672095826657444
0.00014743093003738393
0.00011711802853437029
8.129369039444505e-05
5.098078889143139e-05
3.169076066224089e-05
2.066788738841773e-05
-6.889295796140132e-06
-3.720219729915378e-05
-6.475938048371164e-05
-7.85379720759906e-05
-8.129369039444639e-05
-8.956084534981374e-05
-0.00010885087357900426
-0.00013089662012665053
-0.00013089662012665053
-0.00012814090180819475
-0.00013089662012665053
-0.00014743093003738526
-0.0001612095216296642
-0.00016396523994811996
-0.000150186648355841
-0.00015294236667429682
-0.0001584538033112084
-0.0001584538033112084
-0.00014743093003738526
-0.0001336523384451063
-0.0001336523384451063
-0.00014191949340047367
-0.00013089662012665053
-9.78280003051811e-05
-7.027081712062322e-05
-6.751509880216745e-05
-7.027081712062322e-05
-7.302653543907902e-05
-6.751509880216745e-05
-5.6492225528344285e-05
-6.751509880216745e-05
-8.680512703135793e-05
-0.00010333943694209268
-0.0001226294651712832
-0.0001364080567635621
-0.000150186648355841
-0.00016947667658503157
-0.00018325526817731047
-0.00018601098649576628
-0.00018049954985885472
-0.00017498811322194308
-0.0001777438315403989
-0.00018876670481422206
-0.00018601098649576628
-0.00017223239490348733
-0.00016396523994811996
-0.00017223239490348733
-0.00018876670481422206
-0.00019427814145113364
-0.00016672095826657574
-5.9247943846800084e-05
0.00019152242313267648
0.0006241701991302349
0.0011339780880445555
0.001514267215991454
0.0015693815823605698
0.0011587795529106576
0.000469849973296711
-0.00011160659189746003
-0.00040371273365377345
-0.00040371273365377345
-0.00032655262073701135
-0.00030175115587090934
-0.00029348400091554195
-0.00027970540932326305
-0.0002604153810940725
-0.0002466367895017936
-0.0002521482261387052
-0.0002549039444571609
-0.0002466367895017936
-0.00022734676127260308
-0.00021356816968032413
-0.00021356816968032413
-0.00022459104295414727
-0.00021632388799877996
-0.00020254529640650095
-0.00018876670481422206
-0.00018325526817731047
-0.00019152242313267784
-0.00017223239490348733
-0.00015294236667429682
-0.000150186648355841
-0.00015294236667429682
-0.00014467521171892948
-0.0001226294651712832
-9.507228198672531e-05
-7.027081712062322e-05
-5.6492225528344285e-05
-4.2713633936065354e-05
-6.889295796140132e-06
3.720219729915245e-05
7.853797207598924e-05
0.00010885087357900291
0.00013640805676356078
0.00016396523994811866
0.00020254529640649968
0.00023285819790951333
0.00024663678950179223
0.00024663678950179223
0.00025214822613870384
0.00026041538109407124
0.000263171099412527
0.00024663678950179223
0.0002190796063172344
0.00019427814145113231
0.00017774383154039756
0.0001694766765850302
0.00015018664835583973
0.0001253851834897376
0.00010885087357900291
0.00010333943694209132
9.782800030517979e-05
8.68051270313566e-05
6.751509880216611e-05
4.546935225451981e-05
2.3423605706873515e-05
1.5156450751506162e-05
-1.377859159228559e-06
-3.4446478980697995e-05
-6.751509880216745e-05
-7.57822537575348e-05
-7.027081712062322e-05
-7.85379720759906e-05
-0.00011160659189746003
-0.00014743093003738526
-0.00015569808499275262
-0.00015294236667429682
-0.000150186648355841
-0.0001612095216296642
-0.0001777438315403989
-0.00018601098649576628
-0.0001777438315403989
-0.00017223239490348733
-0.0001777438315403989
-0.00019152242313267784
-0.00019703385976958942
-0.00018325526817731047
-0.00017223239490348733
-0.00016947667658503157
-0.0001584538033112084
-0.00010058371862363688
6.475938048371032e-05
0.0004009570153353164
0.0009107649042496368
0.0016052059205004952
0.0013682141451132974
0.0006434602273594254
-0.00015569808499275262
-0.0005690558327611206
-0.0005387429312581068
-0.00039268986037995033
-0.0002989954375524536
-0.0002631710994125282
-0.0002521482261387052
-0.00024939250782024937
-0.00024112535286488197
-0.0002218353246356915
-0.00020254529640650095
-0.00020254529640650095
-0.0002080567330434125
-0.00020530101472495681
-0.00019427814145113364
-0.00017498811322194308
-0.00017223239490348733
-0.00018049954985885472
-0.00018325526817731047
-0.00016947667658503157
-0.00015294236667429682
-0.00014467521171892948
-0.00014467521171892948
-0.0001391637750820179
-0.0001226294651712832
-9.78280003051811e-05
-8.129369039444639e-05
-7.85379720759906e-05
-6.751509880216745e-05
-3.995791561760957e-05
-1.377859159228559e-06
3.444647898069667e-05
6.475938048371032e-05
8.956084534981241e-05
0.00012262946517128183
0.0001694766765850302
0.00020805673304341124
0.00022734676127260172
0.0002383696345464249
0.00025214822613870384
0.00027143825436789435
0.0002824611276417174
0.00027970540932326175
0.0002576596627756154
0.00024112535286488067
0.00023285819790951333
0.00022734676127260172
0.00020254529640649968
0.00016672095826657444
0.00013640805676356078
0.00011711802853437029
0.00010609515526054714
8.129369039444505e-05
4.271363393606403e-05
6.8892957961388014e-06
-1.5156450751507488e-05
-2.6179324025330647e-05
-4.2713633936065354e-05
-7.57822537575348e-05
-0.00010333943694209268
-0.0001171180285343716
-0.0001226294651712832
-0.00014743093003738526
-0.00016672095826657574
-0.00017498811322194308
-0.00016947667658503157
-0.00016672095826657574
-0.00017498811322194308
-0.00018876670481422206
-0.00019427814145113364
-0.00018601098649576628
-0.00017223239490348733
-0.00017223239490348733
-0.00018049954985885472
-0.00018601098649576628
-0.0001777438315403989
-0.0001612095216296642
-0.0001584538033112084
-0.00016672095826657574
-0.00017223239490348733
-0.00016947667658503157
-0.00015294236667429682
-0.000150186648355841
-0.0001584538033112084
-0.00016672095826657574
-0.00016396523994811996
-0.000150186648355841
-0.00014191949340047367
-0.000150186648355841
-0.0001612095216296642
-0.0001584538033112084
-0.0001391637750820179
-0.00012814090180819475
-0.00013089662012665053
-0.0001391637750820179
-0.0001364080567635621
-0.00012538518348973897
-0.00010333943694209268
-8.956084534981374e-05
-8.680512703135793e-05
-8.680512703135793e-05
-7.57822537575348e-05
-6.475938048371164e-05
-6.475938048371164e-05
-8.956084534981374e-05
-0.00011160659189746003
-0.0001171180285343716
-0.00011436231021591582
-0.00013089662012665053
-0.0001612095216296642
-0.00018325526817731047
-0.00019427814145113364
-0.00018876670481422206
-0.00018601098649576628
-0.00019703385976958942
-0.0002080567330434125
-0.00020530101472495681
-0.00019152242313267784
-0.00018601098649576628
-0.00018876670481422206
-0.00020530101472495681
-0.0002080567330434125
-0.00019152242313267784
-0.00016396523994811996
-8.129369039444639e-05
0.0001253851834897376
0.0004918957198443572
0.0012166496375982292
0.0012800311589227123
0.0009906807354848547
0.0004670942549782553
-4.133577477684346e-06
-0.0002824611276417188
-0.0003320640573739229
-0.0002962397192339978
-0.00029072828259708617
-0.00027970540932326305
-0.0002631710994125282
-0.00025765966277561676
-0.00026592681773098404
-0.00027143825436789566
-0.00025765966277561676
-0.00024112535286488197
-0.00023010247959105888
-0.00023285819790951464
-0.00023836963454642628
-0.00024112535286488197
-0.00023010247959105888
-0.00021632388799877996
-0.00021632388799877996
-0.0002218353246356915
-0.0002190796063172357
-0.00020254529640650095
-0.00018601098649576628
-0.00018325526817731047
-0.00018601098649576628
-0.00018601098649576628
-0.00016947667658503157
-0.00014743093003738526
-0.0001336523384451063
-0.0001336523384451063
-0.0001226294651712832
-9.78280003051811e-05
-6.200366216525588e-05
-3.720219729915378e-05
-1.7912169069963278e-05
4.133577477683014e-06
3.720219729915245e-05
7.578225375753347e-05
0.00010885087357900291
0.00012262946517128183
0.00013089662012664922
0.00014467521171892812
0.0001694766765850302
0.00018601098649576498
0.00018601098649576498
0.00017774383154039756
0.000172232394903486
0.00017498811322194178
0.0001694766765850302
0.00015294236667429551
0.0001253851834897376
0.00010333943694209132
9.507228198672396e-05
8.68051270313566e-05
5.9247943846798756e-05
3.169076066224089e-05
6.8892957961388014e-06
-6.889295796140132e-06
-1.5156450751507488e-05
-3.169076066224221e-05
-5.9247943846800084e-05
-8.129369039444639e-05
-8.680512703135793e-05
-9.507228198672531e-05
-0.0001171180285343716
-0.0001336523384451063
-0.00014467521171892948
-0.00014467521171892948
-0.00014467521171892948
-0.00015569808499275262
-0.00017498811322194308
-0.00018049954985885472
-0.00017498811322194308
-0.00017223239490348733
-0.00018049954985885472
-0.00018876670481422206
-0.00018325526817731047
-0.00016672095826657574
-0.000150186648355841
-0.00014467521171892948
-0.000150186648355841
-0.0001584538033112084
-0.00014467521171892948
-0.0001171180285343716
-0.00010058371862363688
-9.507228198672531e-05
-9.231656366826955e-05
-8.404940871290214e-05
-7.027081712062322e-05
-7.027081712062322e-05
-8.956084534981374e-05
-0.00010885087357900426
-0.00011436231021591582
-0.00011160659189746003
-0.00012814090180819475
-0.00015569808499275262
-0.00017498811322194308
-0.00018601098649576628
-0.00018049954985885472
-0.0001777438315403989
-0.00018876670481422206
-0.0001997895780880452
-0.00020254529640650095
-0.00019427814145113364
-0.00018876670481422206
-0.00019427814145113364
-0.00020254529640650095
-0.00021632388799877996
-0.0002080567330434125
-0.00018876670481422206
-0.00015294236667429682
-3.4446478980697995e-05
0.00023561391622796914
0.0006324373540856024
0.001007215045395589
0.0012001153276874944
0.0010788637216754397
0.0006407045090409697
0.00013089662012664922
-0.00023285819790951464
-0.00037615555046921565
-0.0003458426489662019
-0.0003155297474631883
-0.0002989954375524536
-0.00027694969100480727
-0.0002604153810940725
-0.0002631710994125282
-0.00027143825436789566
-0.00025765966277561676
-0.00024112535286488197
-0.00024388107118333775
-0.0002549039444571609
-0.0002521482261387052
-0.00023561391622797047
-0.0002218353246356915
-0.00021632388799877996
-0.0002218353246356915
-0.00022734676127260308
-0.00021632388799877996
-0.00019427814145113364
-0.00018876670481422206
-0.00019152242313267784
-0.00019152242313267784
-0.00017498811322194308
-0.000150186648355841
-0.0001336523384451063
-0.00013089662012665053
-0.00012538518348973897
-0.00010333943694209268
-7.027081712062322e-05
-3.720219729915378e-05
-1.7912169069963278e-05
-6.889295796140132e-06
2.6179324025329308e-05
6.751509880216611e-05
0.00010333943694209132
0.00012262946517128183
0.0001253851834897376
0.00013640805676356078
0.0001556980849927513
0.0001694766765850302
0.00015845380331120705
0.00014191949340047234
0.0001253851834897376
0.00011987374685282605
0.00011436231021591448
9.782800030517979e-05
6.751509880216611e-05
3.9957915617608246e-05
2.8935042343785094e-05
2.3423605706873515e-05
4.133577477683014e-06
-2.342360570687485e-05
-5.098078889143272e-05
-6.751509880216745e-05
-7.027081712062322e-05
-8.129369039444639e-05
-0.00010609515526054846
-0.00012814090180819475
-0.0001391637750820179
-0.0001336523384451063
-0.0001336523384451063
-0.00014743093003738526
-0.00016672095826657574
-0.00017223239490348733
-0.00016672095826657574
-0.0001612095216296642
-0.00017223239490348733
-0.00018601098649576628
-0.00019152242313267784
-0.00018325526817731047
-0.00016947667658503157
-0.00017498811322194308
-0.00017498811322194308
-0.00016672095826657574
-0.00014743093003738526
-0.00014191949340047367
-0.000150186648355841
-0.00014467521171892948
-0.0001226294651712832
-9.507228198672531e-05
-7.85379720759906e-05
-8.404940871290214e-05
-9.231656366826955e-05
-8.956084534981374e-05
-8.129369039444639e-05
-8.404940871290214e-05
-9.78280003051811e-05
-0.0001171180285343716
-0.0001364080567635621
-0.000150186648355841
-0.000150186648355841
-0.00016396523994811996
-0.00018325526817731047
-0.00018876670481422206
-0.00018601098649576628
-0.0001777438315403989
-0.00018049954985885472
-0.00019152242313267784
-0.00019427814145113364
-0.00018601098649576628
-0.00017498811322194308
-0.00017498811322194308
-0.00018876670481422206
-0.00019427814145113364
-0.00016672095826657574
-7.302653543907902e-05
0.00013640805676356078
0.0004946514381628131
0.0009107649042496368
0.0012331839475089635
0.0012993211871519031
0.0009934364538033101
0.0004422927901121532
-5.6492225528344285e-05
-0.0003375754940108345
-0.0003568655222400251
-0.0002824611276417188
-0.0002631710994125282
-0.0002631710994125282
-0.0002549039444571609
-0.00023836963454642628
-0.00022459104295414727
-0.00022459104295414727
-0.00023010247959105888
-0.0002218353246356915
-0.0002108124513618684
-0.00019703385976958942
-0.00019427814145113364
-0.00020254529640650095
-0.00020254529640650095
-0.00019152242313267784
-0.0001777438315403989
-0.00017223239490348733
-0.0001777438315403989
-0.0001777438315403989
-0.00016672095826657574
-0.0001336523384451063
-0.0001336523384451063
-0.0001336523384451063
-0.0001171180285343716
-8.956084534981374e-05
-6.751509880216745e-05
-5.9247943846800084e-05
-4.5469352254521147e-05
-1.5156450751507488e-05
2.8935042343785094e-05
7.578225375753347e-05
0.00010885087357900291
0.00013365233844510492
0.00016120952162966288
0.00019978957808804387
0.00023285819790951333
0.0002493925078202481
0.0002549039444571596
0.0002576596627756154
0.0002686825360494386
0.0002769496910048059
0.0002741939726863501
0.0002549039444571596
0.00023285819790951333
0.0002218353246356902
0.0002135681696803228
0.00019427814145113231
0.00016120952162966288
0.0001253851834897376
0.00010333943694209132
9.507228198672396e-05
7.30265354390777e-05
4.271363393606403e-05
9.64501411459459e-06
-9.64501411459592e-06
-1.7912169069963278e-05
-2.8935042343786426e-05
-5.3736507209888505e-05
-7.85379720759906e-05
-8.956084534981374e-05
-8.956084534981374e-05
-8.956084534981374e-05
-0.00010333943694209268
-0.00012538518348973897
-0.0001364080567635621
-0.0001336523384451063
-0.00012538518348973897
-0.0001336523384451063
-0.00015569808499275262
-0.00016396523994811996
-0.000150186648355841
-0.0001336523384451063
-0.00012814090180819475
-0.0001364080567635621
-0.0001391637750820179
-0.00013089662012665053
-0.00011436231021591582
-0.00010058371862363688
-9.231656366826955e-05
-8.404940871290214e-05
-6.475938048371164e-05
-4.5469352254521147e-05
-3.4446478980697995e-05
-3.995791561760957e-05
-5.3736507209888505e-05
-6.200366216525588e-05
-5.098078889143272e-05
-6.751509880216745e-05
-0.00010609515526054846
-0.00012814090180819475
-0.00012814090180819475
-0.00012814090180819475
-0.0001391637750820179
-0.00015294236667429682
-0.0001584538033112084
-0.000150186648355841
-0.00014191949340047367
-0.00014191949340047367
-0.00015569808499275262
-0.00016396523994811996
-0.0001584538033112084
-0.000150186648355841
-0.00014467521171892948
-0.000150186648355841
-0.00011436231021591582
5.9247943846798756e-05
0.00043126991683832994
0.0009383220874341949
0.0013682141451132974
0.0015500915541313794
0.0013296340886549166
0.0007509332417792012
0.00013916377508201656
-0.00027694969100480727
-0.0004147356069275966
-0.0003485983672846577
-0.0002852168459601746
-0.0002549039444571609
-0.00024388107118333775
-0.0002466367895017936
-0.00024112535286488197
-0.00022734676127260308
-0.0002108124513618684
-0.0002080567330434125
-0.00021356816968032413
-0.00021356816968032413
-0.00020254529640650095
-0.00018601098649576628
-0.00018049954985885472
-0.00018325526817731047
-0.00018876670481422206
-0.0001777438315403989
-0.0001612095216296642
-0.000150186648355841
-0.000150186648355841
-0.00015569808499275262
-0.00014191949340047367
-0.0001198737468528274
-0.00010058371862363688
-9.231656366826955e-05
-8.956084534981374e-05
-7.302653543907902e-05
-4.2713633936065354e-05
-6.889295796140132e-06
1.7912169069961946e-05
3.444647898069667e-05
6.475938048371032e-05
0.00011160659189745871
0.00015845380331120705
0.00018601098649576498
0.00020805673304341124
0.0002576596627756154
0.0002824611276417174
0.00029072828259708476
0.0002824611276417174
0.00027143825436789435
0.000263171099412527
0.00026041538109407124
0.00024663678950179223
0.00021632388799877858
0.00018601098649576498
0.00016396523994811866
0.00015294236667429551
0.00013640805676356078
0.00010609515526054714
7.02708171206219e-05
4.82250705729756e-05
3.720219729915245e-05
1.7912169069961946e-05
-9.64501411459592e-06
-3.995791561760957e-05
-5.6492225528344285e-05
-6.200366216525588e-05
-6.751509880216745e-05
-8.680512703135793e-05
-0.00010885087357900426
-0.0001198737468528274
-0.0001198737468528274
-0.0001171180285343716
-0.00012538518348973897
-0.00014191949340047367
-0.00015294236667429682
-0.000150186648355841
-0.00014467521171892948
-0.00014743093003738526
-0.00015569808499275262
-0.0001612095216296642
-0.00015294236667429682
-0.0001336523384451063
-0.00012538518348973897
-0.00013089662012665053
-0.0001391637750820179
-0.00012814090180819475
-9.78280003051811e-05
-7.027081712062322e-05
-6.200366216525588e-05
-6.475938048371164e-05
-5.9247943846800084e-05
-4.5469352254521147e-05
-3.720219729915378e-05
-4.5469352254521147e-05
-7.027081712062322e-05
-8.129369039444639e-05
-7.85379720759906e-05
-8.680512703135793e-05
-0.0001171180285343716
-0.00014467521171892948
-0.0001584538033112084
-0.000150186648355841
-0.0001391637750820179
-0.0001364080567635621
-0.000150186648355841
-0.0001584538033112084
-0.000150186648355841
-0.0001364080567635621
-0.0001336523384451063
-0.00015569808499275262
-0.0001612095216296642
-0.000150186648355841
-0.00013089662012665053
-5.3736507209888505e-05
0.00016120952162966288
0.0005828344243533982
0.0011091766231784534
0.0015087557793545424
0.0015996944838635836
0.0012414511024643313
0.0005883458609903097
1.2400732433050376e-05
-0.0003155297474631883
-0.00036237695887693665
-0.00030175115587090934
-0.0002686825360494398
-0.00024388107118333775
-0.00022459104295414727
-0.0002190796063172357
-0.00022459104295414727
-0.00022459104295414727
-0.0002108124513618684
-0.00019152242313267784
-0.00018325526817731047
-0.00018601098649576628
-0.00018876670481422206
-0.00018049954985885472
-0.00016396523994811996
-0.00015569808499275262
-0.0001584538033112084
-0.0001612095216296642
-0.00015294236667429682
-0.0001336523384451063
-0.00011436231021591582
-0.00011436231021591582
-0.0001198737468528274
-0.00011160659189746003
-8.680512703135793e-05
-6.200366216525588e-05
-5.098078889143272e-05
-4.8225070572976926e-05
-2.6179324025330647e-05
6.8892957961388014e-06
4.546935225451981e-05
7.853797207598924e-05
0.00010609515526054714
0.00013916377508201656
0.00018601098649576498
0.00023285819790951333
0.00026592681773098274
0.0002824611276417174
0.0002934840009155406
0.0003127740291447311
0.0003348197756923775
0.000340331212329289
0.00033206405737392166
0.0003182854657816428
0.00031001831082627527
0.00030450687418936376
0.00029072828259708476
0.00026041538109407124
0.00022459104295414594
0.00019978957808804387
0.0001832552681773092
0.00013089662012664922
9.507228198672396e-05
6.751509880216611e-05
5.373650720988717e-05
3.720219729915245e-05
9.64501411459459e-06
-2.342360570687485e-05
-4.2713633936065354e-05
-4.5469352254521147e-05
-5.098078889143272e-05
-6.200366216525588e-05
-8.404940871290214e-05
-0.00010058371862363688
-0.00010333943694209268
-9.507228198672531e-05
-0.00010058371862363688
-0.0001198737468528274
-0.0001391637750820179
-0.0001364080567635621
-0.00012538518348973897
-0.0001226294651712832
-0.00013089662012665053
-0.0001336523384451063
-0.00012814090180819475
-0.00010885087357900426
-9.507228198672531e-05
-0.00010058371862363688
-0.00010609515526054846
-8.956084534981374e-05
-5.6492225528344285e-05
-2.8935042343786426e-05
-2.066788738841907e-05
-2.6179324025330647e-05
-2.8935042343786426e-05
-2.066788738841907e-05
-1.5156450751507488e-05
-2.342360570687485e-05
-4.2713633936065354e-05
-5.6492225528344285e-05
-7.027081712062322e-05
-8.956084534981374e-05
-0.00010333943694209268
-0.0001226294651712832
-0.0001364080567635621
-0.0001391637750820179
-0.00012814090180819475
-0.0001226294651712832
-0.00013089662012665053
-0.00014191949340047367
-0.00014191949340047367
-0.00013089662012665053
-0.00012538518348973897
-0.0001364080567635621
-0.00015294236667429682
-0.0001584538033112084
-0.0001364080567635621
-6.475938048371164e-05
0.00012262946517128183
0.0005029185931181804
0.0010182379186694126
0.0014619085679407943
0.0016410302586404204
0.0013627027084763858
0.0007151089036392759
8.956084534981241e-05
-0.00037339983215075977
-0.0003045068741893651
-0.00026592681773098404
-0.0002521482261387052
-0.00023561391622797047
-0.00021356816968032413
-0.00020530101472495681
-0.0002108124513618684
-0.00021356816968032413
-0.00020530101472495681
-0.00018601098649576628
-0.00017498811322194308
-0.00018325526817731047
-0.00019152242313267784
-0.00018049954985885472
-0.00016396523994811996
-0.00015294236667429682
-0.000150186648355841
-0.00015569808499275262
-0.00015294236667429682
-0.0001336523384451063
-0.00011436231021591582
-0.00010609515526054846
-0.00011160659189746003
-0.00010333943694209268
-7.57822537575348e-05
-5.098078889143272e-05
-3.720219729915378e-05
-2.8935042343786426e-05
-1.240073243305171e-05
2.066788738841773e-05
6.200366216525454e-05
0.00010058371862363556
0.00013089662012664922
0.0001556980849927513
0.00019978957808804387
0.00024388107118333642
0.00027143825436789435
0.00027970540932326175
0.0002824611276417174
0.00029072828259708476
0.00030450687418936376
0.00031001831082627527
0.0002934840009155406
0.00026592681773098274
0.00025214822613870384
0.00024663678950179223
0.00023010247959105753
0.00019978957808804387
0.00016396523994811866
0.00013365233844510492
0.00011711802853437029
0.00010333943694209132
7.578225375753347e-05
3.9957915617608246e-05
9.64501411459459e-06
-4.133577477684346e-06
-1.240073243305171e-05
-2.8935042343786426e-05
-5.6492225528344285e-05
-7.57822537575348e-05
-8.129369039444639e-05
-7.85379720759906e-05
-8.129369039444639e-05
-9.78280003051811e-05
-0.00011436231021591582
-0.00011160659189746003
-0.00011436231021591582
-0.00012538518348973897
-0.00014191949340047367
-0.00014467521171892948
-0.0001364080567635621
-0.00012538518348973897
-0.00012814090180819475
-0.0001336523384451063
-0.00012814090180819475
-0.00011160659189746003
-9.78280003051811e-05
-9.78280003051811e-05
-9.78280003051811e-05
-8.129369039444639e-05
-5.3736507209888505e-05
-2.8935042343786426e-05
-2.342360570687485e-05
-2.8935042343786426e-05
-3.4446478980697995e-05
-2.8935042343786426e-05
-2.6179324025330647e-05
-3.720219729915378e-05
-5.9247943846800084e-05
-8.129369039444639e-05
-0.00010333943694209268
-0.00010885087357900426
-0.00011160659189746003
-0.00012814090180819475
-0.00014191949340047367
-0.00014743093003738526
-0.00014191949340047367
-0.0001336523384451063
-0.0001391637750820179
-0.000150186648355841
-0.000150186648355841
-0.0001391637750820179
-0.00013089662012665053
-0.0001391637750820179
-0.00015569808499275262
-0.00015569808499275262
-0.0001171180285343716
9.64501411459459e-06
0.0002879725642786291
0.0007371546501869223
0.0012304282291905084
0.0015748930189974813
0.0015748930189974813
0.0011229552147707324
0.0004395370717936973
-9.507228198672531e-05
-0.0003430869306477461
-0.00032379690241855563
-0.0002549039444571609
-0.00024112535286488197
-0.00023836963454642628
-0.00022734676127260308
-0.0002080567330434125
-0.0001997895780880452
-0.00020254529640650095
-0.00020254529640650095
-0.00019703385976958942
-0.00018325526817731047
-0.00016947667658503157
-0.00016947667658503157
-0.00017498811322194308
-0.0001584538033112084
-0.00014467521171892948
-0.00014467521171892948
-0.00014743093003738526
-0.00014743093003738526
-0.00013089662012665053
-0.00011160659189746003
-0.00010609515526054846
-0.00010885087357900426
-0.00010609515526054846
-8.129369039444639e-05
-5.098078889143272e-05
-2.8935042343786426e-05
-1.5156450751507488e-05
4.133577477683014e-06
3.720219729915245e-05
8.404940871290084e-05
0.0001253851834897376
0.0001556980849927513
0.00017498811322194178
0.00021632388799877858
0.00026041538109407124
0.00029072828259708476
0.00030450687418936376
0.0003072625925078196
0.00031001831082627527
0.00032379690241855427
0.00033206405737392166
0.00032379690241855427
0.0002989954375524522
0.0002769496910048059
0.0002686825360494386
0.00025214822613870384
0.00022459104295414594
0.00018601098649576498
0.00015294236667429551
0.00013916377508201656
0.0001253851834897376
0.00010058371862363556
6.200366216525454e-05
3.169076066224089e-05
1.2400732433050376e-05
1.3778591592272275e-06
-1.5156450751507488e-05
-3.720219729915378e-05
-5.9247943846800084e-05
-7.027081712062322e-05
-7.302653543907902e-05
-7.57822537575348e-05
-9.231656366826955e-05
-0.00010885087357900426
-0.00011436231021591582
-0.00010885087357900426
-0.00010333943694209268
-0.00011436231021591582
-0.00013089662012665053
-0.0001364080567635621
-0.00012538518348973897
-0.00011160659189746003
-0.00010885087357900426
-0.0001198737468528274
-0.0001198737468528274
-0.00010885087357900426
-9.231656366826955e-05
-7.302653543907902e-05
-6.200366216525588e-05
-3.995791561760957e-05
-1.7912169069963278e-05
-1.240073243305171e-05
-2.066788738841907e-05
-2.6179324025330647e-05
-2.6179324025330647e-05
-2.6179324025330647e-05
-3.169076066224221e-05
-4.8225070572976926e-05
-8.404940871290214e-05
-0.00010885087357900426
-0.00010885087357900426
-0.00010885087357900426
-0.0001226294651712832
-0.0001364080567635621
-0.00014191949340047367
-0.0001336523384451063
-0.00012538518348973897
-0.00013089662012665053
-0.00014743093003738526
-0.00015294236667429682
-0.00014467521171892948
-0.0001364080567635621
-0.00014467521171892948
-0.00015569808499275262
-0.00014467521171892948
-4.5469352254521147e-05
0.00020530101472495543
0.0006489716639963371
0.0011642909895475692
0.0015363129625391005
0.001602450202182039
0.0012194053559166852
0.0005442543678950173
-4.2713633936065354e-05
-0.0003596212405584808
-0.0003844227054245829
-0.0002989954375524536
-0.0002549039444571609
-0.00024939250782024937
-0.0002521482261387052
-0.0002466367895017936
-0.00023285819790951464
-0.0002218353246356915
-0.0002190796063172357
-0.00022459104295414727
-0.0002190796063172357
-0.00019703385976958942
-0.00018601098649576628
-0.00018601098649576628
-0.00019152242313267784
-0.00019152242313267784
-0.0001777438315403989
-0.0001584538033112084
-0.00015294236667429682
-0.0001584538033112084
-0.0001584538033112084
-0.00014191949340047367
-0.0001198737468528274
-0.00010885087357900426
-0.00010885087357900426
-0.00010333943694209268
-8.680512703135793e-05
-3.4446478980697995e-05
-1.5156450751507488e-05
4.133577477683014e-06
4.271363393606403e-05
8.956084534981241e-05
0.00013089662012664922
0.00016396523994811866
0.00018601098649576498
0.000210812451361867
0.00024663678950179223
0.0002741939726863501
0.0002824611276417174
0.0002769496910048059
0.0002741939726863501
0.00027970540932326175
0.00027970540932326175
0.000263171099412527
0.00023285819790951333
0.00020530101472495543
0.00018876670481422076
0.00017774383154039756
0.0001556980849927513
0.00011987374685282605
8.68051270313566e-05
7.02708171206219e-05
6.200366216525454e-05
4.271363393606403e-05
6.8892957961388014e-06
-2.6179324025330647e-05
-3.995791561760957e-05
-4.5469352254521147e-05
-5.6492225528344285e-05
-7.57822537575348e-05
-9.78280003051811e-05
-0.00010885087357900426
-0.00010333943694209268
-0.00010333943694209268
-0.0001198737468528274
-0.0001364080567635621
-0.00014467521171892948
-0.0001391637750820179
-0.0001336523384451063
-0.00014467521171892948
-0.0001612095216296642
-0.00016396523994811996
-0.00014743093003738526
-0.00013089662012665053
-0.00012538518348973897
-0.0001336523384451063
-0.0001364080567635621
-0.00012538518348973897
-0.00010609515526054846
-8.680512703135793e-05
-7.85379720759906e-05
-7.302653543907902e-05
-5.6492225528344285e-05
-3.995791561760957e-05
-3.4446478980697995e-05
-3.995791561760957e-05
-5.6492225528344285e-05
-6.751509880216745e-05
-6.475938048371164e-05
-6.751509880216745e-05
-9.78280003051811e-05
-0.0001364080567635621
-0.00014743093003738526
-0.0001391637750820179
-0.00014743093003738526
-0.00016396523994811996
-0.00016947667658503157
-0.0001612095216296642
-0.00015294236667429682
-0.00015294236667429682
-0.00016396523994811996
-0.00016672095826657574
-0.0001612095216296642
-0.00015569808499275262
-0.00015294236667429682
-0.00014743093003738526
-6.475938048371164e-05
0.0001694766765850302
0.0006076358892195001
0.0011229552147707324
0.0015060000610360867
0.0015831601739528486
0.0012386953841458756
0.0005966130159456772
6.8892957961388014e-06
-0.0003320640573739229
-0.0003871784237430386
-0.0003155297474631883
-0.00027143825436789566
-0.0002521482261387052
-0.00024388107118333775
-0.0002466367895017936
-0.00024388107118333775
-0.00022734676127260308
-0.00021356816968032413
-0.0002108124513618684
-0.00021356816968032413
-0.00021356816968032413
-0.0001997895780880452
-0.00018601098649576628
-0.00018049954985885472
-0.00018601098649576628
-0.00018876670481422206
-0.0001777438315403989
-0.0001584538033112084
-0.00014743093003738526
-0.00014743093003738526
-0.00015294236667429682
-0.0001391637750820179
-0.0001198737468528274
-0.00010333943694209268
-9.231656366826955e-05
-8.680512703135793e-05
-6.475938048371164e-05
-3.169076066224221e-05
-4.133577477684346e-06
1.7912169069961946e-05
4.271363393606403e-05
8.129369039444505e-05
0.00013089662012664922
0.00017774383154039756
0.000210812451361867
0.00023010247959105753
0.00025214822613870384
0.0002824611276417174
0.00030450687418936376
0.000315529747463187
0.00030450687418936376
0.00029623971923399637
0.0002934840009155406
0.00027970540932326175
0.0002493925078202481
0.00021632388799877858
0.0001970338597695881
0.00018601098649576498
0.00016672095826657444
0.00012814090180819342
8.956084534981241e-05
7.02708171206219e-05
5.649222552834297e-05
3.720219729915245e-05
4.133577477683014e-06
-2.6179324025330647e-05
-4.5469352254521147e-05
-5.3736507209888505e-05
-5.9247943846800084e-05
-7.57822537575348e-05
-0.00010058371862363688
-0.0001171180285343716
-0.00011160659189746003
-0.00010609515526054846
-0.0001198737468528274
-0.0001364080567635621
-0.00014467521171892948
-0.00014467521171892948
-0.0001364080567635621
-0.0001391637750820179
-0.00015294236667429682
-0.00015569808499275262
-0.00014467521171892948
-0.0001226294651712832
-0.0001171180285343716
-0.00012538518348973897
-0.00012814090180819475
-0.00011436231021591582
-8.404940871290214e-05
-5.9247943846800084e-05
-5.3736507209888505e-05
-5.6492225528344285e-05
-5.6492225528344285e-05
-4.2713633936065354e-05
-3.4446478980697995e-05
-4.8225070572976926e-05
-7.027081712062322e-05
-7.57822537575348e-05
-7.85379720759906e-05
-0.00010058371862363688
-0.00012814090180819475
-0.00014743093003738526
-0.0001612095216296642
-0.0001584538033112084
-0.000150186648355841
-0.000150186648355841
-0.0001612095216296642
-0.00017223239490348733
-0.00016396523994811996
-0.00015294236667429682
-0.00014743093003738526
-0.0001584538033112084
-0.00017223239490348733
-0.00017498811322194308
-0.00015569808499275262
-0.00012538518348973897
0.0002549039444571596
0.0006985745937285414
0.0011532681162737465
0.001423328511482413
0.001335145525291828
0.0008611619745174325
0.00026592681773098274
-0.00016947667658503157
-0.0003651326771953924
-0.0003458426489662019
-0.00030175115587090934
-0.00028797256427863044
-0.0002604153810940725
-0.00024112535286488197
-0.00023836963454642628
-0.0002466367895017936
-0.00024388107118333775
-0.00022734676127260308
-0.0002080567330434125
-0.00020530101472495681
-0.0002108124513618684
-0.00021632388799877996
-0.00020530101472495681
-0.00018876670481422206
-0.00018325526817731047
-0.00019152242313267784
-0.00019427814145113364
-0.00018049954985885472
-0.0001612095216296642
-0.00015294236667429682
-0.00015294236667429682
-0.00015569808499275262
-0.00014467521171892948
-0.0001198737468528274
-0.00010058371862363688
-8.956084534981374e-05
-8.680512703135793e-05
-6.751509880216745e-05
-3.169076066224221e-05
4.133577477683014e-06
2.8935042343785094e-05
5.098078889143139e-05
8.129369039444505e-05
0.00012262946517128183
0.00016120952162966288
0.00017774383154039756
0.00017498811322194178
0.00018049954985885336
0.00019152242313267648
0.00020805673304341124
0.00021632388799877858
0.000210812451361867
0.00020254529640649968
0.00020530101472495543
0.000210812451361867
0.0002135681696803228
0.00019978957808804387
0.00016672095826657444
0.00014467521171892812
0.00013089662012664922
0.00011436231021591448
7.578225375753347e-05
3.720219729915245e-05
1.5156450751506162e-05
1.3778591592272275e-06
-5.9247943846800084e-05
-9.507228198672531e-05
-0.00011436231021591582
-0.00011436231021591582
-0.00011436231021591582
-0.00012538518348973897
-0.00014467521171892948
-0.0001584538033112084
-0.00015569808499275262
-0.000150186648355841
-0.00015294236667429682
-0.00016672095826657574
-0.0001777438315403989
-0.00017498811322194308
-0.00016396523994811996
-0.00016396523994811996
-0.00017498811322194308
-0.00018049954985885472
-0.00012814090180819475
1.3778591592272275e-06
0.000210812451361867
0.0005552772411688404
0.0009769021438925758
0.0012772754406042562
0.001285542595559624
0.00081707048142214
3.720219729915245e-05
-0.0005166971847104609
-0.0005718115510795765
-0.00040646845197222917
-0.00029348400091554195
-0.0002631710994125282
-0.0002604153810940725
-0.0002521482261387052
-0.00023561391622797047
-0.0002190796063172357
-0.0002108124513618684
-0.00021632388799877996
-0.0002218353246356915
-0.0002080567330434125
-0.00018876670481422206
-0.00018325526817731047
-0.00018601098649576628
-0.00019152242313267784
-0.00018325526817731047
-0.00016672095826657574
-0.00015569808499275262
-0.0001612095216296642
-0.0001612095216296642
-0.000150186648355841
-0.0001336523384451063
-0.0001226294651712832
-0.00011160659189746003
-0.00010609515526054846
-8.680512703135793e-05
-5.3736507209888505e-05
-2.342360570687485e-05
1.3778591592272275e-06
2.3423605706873515e-05
5.373650720988717e-05
9.782800030517979e-05
0.00013916377508201656
0.00016120952162966288
0.0001694766765850302
0.00018049954985885336
0.0002190796063172344
0.00021632388799877858
0.00020530101472495543
0.00019152242313267648
0.00019152242313267648
0.00019427814145113231
0.0001832552681773092
0.00015294236667429551
0.00011987374685282605
0.00010333943694209132
8.956084534981241e-05
7.02708171206219e-05
3.444647898069667e-05
-1.377859159228559e-06
-2.6179324025330647e-05
-4.2713633936065354e-05
-5.9247943846800084e-05
-8.129369039444639e-05
-0.00010885087357900426
-0.0001226294651712832
-0.0001226294651712832
-0.00012538518348973897
-0.0001391637750820179
-0.000150186648355841
-0.00015569808499275262
-0.00014743093003738526
-0.0001364080567635621
-0.0001364080567635621
-0.00014743093003738526
-0.00015294236667429682
-0.00014191949340047367
-0.00012814090180819475
-0.00012538518348973897
-0.0001364080567635621
-0.00014467521171892948
-0.0001391637750820179
-0.00012538518348973897
-0.0001171180285343716
-0.00012814090180819475
-0.00014467521171892948
-0.00014191949340047367
-0.00012814090180819475
-0.0001226294651712832
-0.00013089662012665053
-0.00014743093003738526
-0.000150186648355841
-0.00014191949340047367
-0.0001336523384451063
-0.00014191949340047367
-0.00015294236667429682
-0.0001612095216296642
-0.00015569808499275262
-0.00014743093003738526
-0.000150186648355841
-0.00016396523994811996
-0.00016947667658503157
-0.00015294236667429682
-0.0001364080567635621
-0.00012814090180819475
-0.0001336523384451063
-0.0001336523384451063
-0.00012538518348973897
-0.00011160659189746003
-9.78280003051811e-05
-9.231656366826955e-05
-8.129369039444639e-05
-7.027081712062322e-05
-6.475938048371164e-05
-7.57822537575348e-05
-9.78280003051811e-05
-0.00010885087357900426
-0.00010885087357900426
-0.00011436231021591582
-0.0001391637750820179
-0.00016947667658503157
-0.00018049954985885472
-0.00018049954985885472
-0.00017223239490348733
-0.0001777438315403989
-0.00019152242313267784
-0.00019703385976958942
-0.00019152242313267784
-0.00018049954985885472
-0.00018049954985885472
-0.00018601098649576628
-0.00019427814145113364
-0.00018325526817731047
-0.0001612095216296642
-0.00012814090180819475
-2.066788738841907e-05
0.0002190796063172344
0.0005773229877164866
0.0009383220874341949
0.001169802426184481
0.001136733806363011
0.0007922690165560381
0.00030450687418936376
-8.680512703135793e-05
-0.0002824611276417188
-0.00029072828259708617
-0.00027419397268635144
-0.00026592681773098404
-0.0002521482261387052
-0.00023836963454642628
-0.00023836963454642628
-0.0002466367895017936
-0.00024939250782024937
-0.00023285819790951464
-0.0002190796063172357
-0.0002190796063172357
-0.00022459104295414727
-0.00022734676127260308
-0.00021356816968032413
-0.00019703385976958942
-0.00018876670481422206
-0.00019703385976958942
-0.0002080567330434125
-0.0001997895780880452
-0.00018049954985885472
-0.00016947667658503157
-0.00017223239490348733
-0.00017498811322194308
-0.0001612095216296642
-0.00014191949340047367
-0.00012538518348973897
-0.0001198737468528274
-0.0001171180285343716
-0.00010333943694209268
-7.302653543907902e-05
-3.995791561760957e-05
-2.066788738841907e-05
2.066788738841773e-05
5.649222552834297e-05
9.23165636682682e-05
0.00011160659189745871
0.00012262946517128183
0.00013916377508201656
0.00016396523994811866
0.00018601098649576498
0.00019152242313267648
0.00018049954985885336
0.00017498811322194178
0.00017774383154039756
0.00018876670481422076
0.0001832552681773092
0.00016120952162966288
0.00013916377508201656
0.0001253851834897376
0.00012262946517128183
0.00010885087357900291
8.129369039444505e-05
5.098078889143139e-05
3.720219729915245e-05
3.444647898069667e-05
2.3423605706873515e-05
-1.377859159228559e-06
-2.8935042343786426e-05
-4.8225070572976926e-05
-5.3736507209888505e-05
-5.6492225528344285e-05
-7.302653543907902e-05
-9.507228198672531e-05
-0.00010609515526054846
-0.00010609515526054846
-0.00010333943694209268
-0.00011436231021591582
-0.00013089662012665053
-0.0001391637750820179
-0.0001391637750820179
-0.0001364080567635621
-0.00014191949340047367
-0.0001584538033112084
-0.00016672095826657574
-0.00016396523994811996
-0.000150186648355841
-0.00014191949340047367
-0.00014467521171892948
-0.00014743093003738526
-0.0001336523384451063
-0.00011436231021591582
-0.00010333943694209268
-0.00010333943694209268
-0.00010885087357900426
-9.78280003051811e-05
-7.027081712062322e-05
-4.2713633936065354e-05
-3.169076066224221e-05
-3.720219729915378e-05
-3.720219729915378e-05
-2.6179324025330647e-05
-1.7912169069963278e-05
-3.169076066224221e-05
-5.9247943846800084e-05
-7.85379720759906e-05
-8.404940871290214e-05
-9.78280003051811e-05
-0.0001336523384451063
-0.000150186648355841
-0.000150186648355841
-0.00014467521171892948
-0.000150186648355841
-0.00016396523994811996
-0.00016947667658503157
-0.00016396523994811996
-0.000150186648355841
-0.00014743093003738526
-0.0001612095216296642
-0.0001777438315403989
-0.00017498811322194308
-0.00015569808499275262
-0.00010058371862363688
7.02708171206219e-05
0.00041749132524605104
0.000896986312657358
0.001332389806973372
0.0015225343709468217
0.0013158554970626377
0.0007564446784161128
0.00016120952162966288
-0.00023836963454642628
-0.00036237695887693665
-0.0003127740291447324
-0.00027419397268635144
-0.0002631710994125282
-0.0002521482261387052
-0.00023561391622797047
-0.00022734676127260308
-0.00023010247959105888
-0.00023285819790951464
-0.0002190796063172357
-0.00020254529640650095
-0.00019427814145113364
-0.0001997895780880452
-0.00020254529640650095
-0.00019703385976958942
-0.00018049954985885472
-0.00016672095826657574
-0.00016672095826657574
-0.00016947667658503157
-0.00016396523994811996
-0.000150186648355841
-0.0001336523384451063
-0.00012814090180819475
-0.00012814090180819475
-0.0001198737468528274
-0.00010058371862363688
-7.57822537575348e-05
-6.200366216525588e-05
-5.3736507209888505e-05
-3.720219729915378e-05
-4.133577477684346e-06
3.720219729915245e-05
7.30265354390777e-05
9.507228198672396e-05
0.00011987374685282605
0.00015845380331120705
0.00020254529640649968
0.00023010247959105753
0.0002383696345464249
0.00024388107118333642
0.0002549039444571596
0.00027143825436789435
0.0002576596627756154
0.0002383696345464249
0.00022459104295414594
0.00021632388799877858
0.00020530101472495543
0.00017498811322194178
0.00014191949340047234
0.00011711802853437029
0.00010609515526054714
9.23165636682682e-05
6.475938048371032e-05
3.169076066224089e-05
6.8892957961388014e-06
-4.133577477684346e-06
-9.64501411459592e-06
-2.8935042343786426e-05
-5.3736507209888505e-05
-7.57822537575348e-05
-8.129369039444639e-05
-7.85379720759906e-05
-8.680512703135793e-05
-0.00010333943694209268
-0.0001171180285343716
-0.0001198737468528274
-0.00011436231021591582
-0.0001171180285343716
-0.00013089662012665053
-0.00014743093003738526
-0.00014743093003738526
-0.00014191949340047367
-0.00014191949340047367
-0.000150186648355841
-0.00015569808499275262
-0.000150186648355841
-0.0001336523384451063
-0.0001171180285343716
-0.0001171180285343716
-0.0001226294651712832
-0.0001226294651712832
-0.00010609515526054846
-7.302653543907902e-05
-5.6492225528344285e-05
-5.098078889143272e-05
-4.8225070572976926e-05
-3.4446478980697995e-05
-2.066788738841907e-05
-1.7912169069963278e-05
-3.720219729915378e-05
-5.9247943846800084e-05
-5.9247943846800084e-05
-5.9247943846800084e-05
-8.404940871290214e-05
-0.00011436231021591582
-0.0001364080567635621
-0.00014191949340047367
-0.0001336523384451063
-0.0001336523384451063
-0.0001391637750820179
-0.00014743093003738526
-0.00014467521171892948
-0.0001364080567635621
-0.00012814090180819475
-0.00013089662012665053
-0.00014467521171892948
-0.00014743093003738526
-0.0001336523384451063
-0.00011160659189746003
-1.377859159228559e-06
0.0002879725642786291
0.0007647118333714802
0.0012662525673304335
0.0015831601739528486
0.0015363129625391005
0.0010678408484016168
0.00041749132524605104
-8.956084534981374e-05
-0.0003348197756923787
-0.0003348197756923787
-0.0002852168459601746
-0.0002549039444571609
-0.00022734676127260308
-0.00021632388799877996
-0.0002190796063172357
-0.0002218353246356915
-0.00021632388799877996
-0.00019703385976958942
-0.00018601098649576628
-0.00018876670481422206
-0.00019427814145113364
-0.00018876670481422206
-0.00017223239490348733
-0.0001584538033112084
-0.00015569808499275262
-0.0001612095216296642
-0.0001612095216296642
-0.00014743093003738526
-0.00013089662012665053
-0.00012538518348973897
-0.00012538518348973897
-0.0001198737468528274
-0.00010058371862363688
-7.85379720759906e-05
-6.475938048371164e-05
-5.9247943846800084e-05
-4.8225070572976926e-05
-1.7912169069963278e-05
2.066788738841773e-05
5.373650720988717e-05
7.853797207598924e-05
0.00010609515526054714
0.00014743093003738393
0.0001970338597695881
0.00024112535286488067
0.000263171099412527
0.0002769496910048059
0.0002989954375524522
0.00032104118410009855
0.0003348197756923775
0.0003293083390554659
0.000315529747463187
0.0003072625925078196
0.0003072625925078196
0.000301751155870908
0.00027970540932326175
0.00024388107118333642
0.0002135681696803228
0.00020254529640649968
0.00018601098649576498
0.00015845380331120705
9.23165636682682e-05
7.30265354390777e-05
5.9247943846798756e-05
3.720219729915245e-05
1.3778591592272275e-06
-2.6179324025330647e-05
-3.720219729915378e-05
-4.2713633936065354e-05
-4.8225070572976926e-05
-6.475938048371164e-05
-8.404940871290214e-05
-8.956084534981374e-05
-8.680512703135793e-05
-8.680512703135793e-05
-0.00010333943694209268
-0.0001226294651712832
-0.00012814090180819475
-0.0001198737468528274
-0.0001171180285343716
-0.00012814090180819475
-0.0001391637750820179
-0.0001364080567635621
-0.0001198737468528274
-0.00010333943694209268
-0.00010058371862363688
-0.00010609515526054846
-0.00010609515526054846
-9.507228198672531e-05
-7.302653543907902e-05
-4.8225070572976926e-05
-3.995791561760957e-05
-3.4446478980697995e-05
-2.342360570687485e-05
-4.133577477684346e-06
1.3778591592272275e-06
-9.64501411459592e-06
-2.342360570687485e-05
-3.4446478980697995e-05
-2.8935042343786426e-05
-3.720219729915378e-05
-7.302653543907902e-05
-0.00010609515526054846
-0.0001171180285343716
-0.00011160659189746003
-0.00010885087357900426
-0.0001198737468528274
-0.0001364080567635621
-0.0001391637750820179
-0.00013089662012665053
-0.0001198737468528274
-0.00012538518348973897
-0.0001364080567635621
-0.0001391637750820179
-0.0001336523384451063
-0.0001226294651712832
-0.0001171180285343716
-9.231656366826955e-05
4.546935225451981e-05
0.0003816669871061258
0.0008942305943389022
0.001379237018387121
0.0016410302586404204
0.001500488624399175
0.0009521006790264736
0.0003072625925078196
-0.00016396523994811996
-0.00032379690241855563
-0.0002631710994125282
-0.00022459104295414727
-0.0002080567330434125
-0.0002080567330434125
-0.00021356816968032413
-0.0002080567330434125
-0.00018601098649576628
-0.00016947667658503157
-0.00016947667658503157
-0.00017498811322194308
-0.00017223239490348733
-0.00015569808499275262
-0.0001391637750820179
-0.0001364080567635621
-0.00014191949340047367
-0.00014191949340047367
-0.00013089662012665053
-0.00011436231021591582
-0.00010609515526054846
-0.00011160659189746003
-0.00010609515526054846
-8.956084534981374e-05
-6.751509880216745e-05
-5.3736507209888505e-05
-4.8225070572976926e-05
-3.995791561760957e-05
-1.7912169069963278e-05
1.5156450751506162e-05
4.82250705729756e-05
7.30265354390777e-05
9.782800030517979e-05
0.00013365233844510492
0.00018049954985885336
0.0002218353246356902
0.0002493925078202481
0.00026592681773098274
0.0002852168459601733
0.00031001831082627527
0.0003293083390554659
0.00033206405737392166
0.0003182854657816428
0.0003072625925078196
0.00030450687418936376
0.000301751155870908
0.0002824611276417174
0.0002493925078202481
0.0002218353246356902
0.00020254529640649968
0.00018876670481422076
0.00016396523994811866
0.00013089662012664922
9.782800030517979e-05
8.129369039444505e-05
7.02708171206219e-05
5.098078889143139e-05
1.7912169069961946e-05
-1.5156450751507488e-05
-2.8935042343786426e-05
-3.169076066224221e-05
-3.995791561760957e-05
-5.6492225528344285e-05
-7.85379720759906e-05
-8.680512703135793e-05
-8.129369039444639e-05
-8.680512703135793e-05
-0.00010609515526054846
-0.0001171180285343716
-0.00011160659189746003
-0.00010333943694209268
-0.00011160659189746003
-0.00012814090180819475
-0.00013089662012665053
-0.00012538518348973897
-0.00010885087357900426
-0.00010609515526054846
-0.00011160659189746003
-0.00011160659189746003
-0.00010333943694209268
-8.404940871290214e-05
-6.751509880216745e-05
-5.6492225528344285e-05
-4.8225070572976926e-05
-3.4446478980697995e-05
-1.7912169069963278e-05
-9.64501411459592e-06
-1.5156450751507488e-05
-3.169076066224221e-05
-3.995791561760957e-05
-3.720219729915378e-05
-4.2713633936065354e-05
-7.027081712062322e-05
-0.00010609515526054846
-0.0001198737468528274
-0.0001171180285343716
-0.00011160659189746003
-0.0001226294651712832
-0.00014191949340047367
-0.000150186648355841
-0.00014191949340047367
-0.00013089662012665053
-0.00012814090180819475
-0.0001336523384451063
-0.00014191949340047367
-0.0001391637750820179
-0.0001364080567635621
-0.0001364080567635621
-0.0001336523384451063
-8.129369039444639e-05
0.00011711802853437029
0.0005194529030289152
0.0010347722285801472
0.0014619085679407943
0.0016244959487296858
0.001379237018387121
0.0007840018616006707
0.00016396523994811866
-0.00023836963454642628
-0.00035410980392156926
-0.0002989954375524536
-0.0002466367895017936
-0.0002218353246356915
-0.0002190796063172357
-0.0002218353246356915
-0.0002190796063172357
-0.00020254529640650095
-0.00018601098649576628
-0.00018049954985885472
-0.00018876670481422206
-0.00019152242313267784
-0.0001612095216296642
-0.00015294236667429682
-0.0001584538033112084
-0.0001612095216296642
-0.00014743093003738526
-0.00013089662012665053
-0.00012538518348973897
-0.00013089662012665053
-0.0001364080567635621
-0.0001226294651712832
-0.00010058371862363688
-8.680512703135793e-05
-8.129369039444639e-05
-7.85379720759906e-05
-5.9247943846800084e-05
-2.342360570687485e-05
6.8892957961388014e-06
2.8935042343785094e-05
5.373650720988717e-05
8.68051270313566e-05
0.00013365233844510492
0.00018601098649576498
0.0002190796063172344
0.00024388107118333642
0.0002686825360494386
0.00030450687418936376
0.0003293083390554659
0.0003348197756923775
0.0003293083390554659
0.00032379690241855427
0.00032655262073701005
0.00032655262073701005
0.0003127740291447311
0.0002824611276417174
0.0002493925078202481
0.00022734676127260172
0.00021632388799877858
0.00019978957808804387
0.00016672095826657444
0.00012814090180819342
0.00010333943694209132
8.68051270313566e-05
7.02708171206219e-05
3.720219729915245e-05
1.3778591592272275e-06
-2.066788738841907e-05
-2.6179324025330647e-05
-3.4446478980697995e-05
-5.3736507209888505e-05
-7.57822537575348e-05
-9.231656366826955e-05
-8.956084534981374e-05
-8.680512703135793e-05
-9.507228198672531e-05
-0.00010885087357900426
-0.0001226294651712832
-0.0001226294651712832
-0.0001171180285343716
-0.0001226294651712832
-0.0001336523384451063
-0.0001391637750820179
-0.00012814090180819475
-0.00011160659189746003
-0.00010058371862363688
-0.00010609515526054846
-0.00010058371862363688
-8.129369039444639e-05
-5.9247943846800084e-05
-4.2713633936065354e-05
-3.4446478980697995e-05
-2.6179324025330647e-05
-1.240073243305171e-05
-1.377859159228559e-06
-6.889295796140132e-06
-2.066788738841907e-05
-3.169076066224221e-05
-3.169076066224221e-05
-3.169076066224221e-05
-5.6492225528344285e-05
-9.78280003051811e-05
-0.0001171180285343716
-0.00011436231021591582
-0.00010885087357900426
-0.00011436231021591582
-0.00013089662012665053
-0.0001391637750820179
-0.0001364080567635621
-0.00012814090180819475
-0.00012814090180819475
-0.0001364080567635621
-0.0001391637750820179
-0.0001391637750820179
-0.0001364080567635621
-0.00013089662012665053
-0.00013089662012665053
-6.475938048371164e-05
0.00014743093003738393
0.0005745672693980309
0.0011064209048599978
0.0015197786526283655
0.0016382745403219644
0.001324122652018005
0.0006847960021362622
8.68051270313566e-05
-0.00028797256427863044
-0.00037615555046921565
-0.0003127740291447324
-0.0002604153810940725
-0.00023285819790951464
-0.00022459104295414727
-0.00023010247959105888
-0.00023285819790951464
-0.00021632388799877996
-0.00019703385976958942
-0.00018876670481422206
-0.00019703385976958942
-0.0001997895780880452
-0.00018876670481422206
-0.00017498811322194308
-0.00016672095826657574
-0.00016947667658503157
-0.00017223239490348733
-0.00016396523994811996
-0.00014191949340047367
-0.00013089662012665053
-0.00012814090180819475
-0.00013089662012665053
-0.0001226294651712832
-9.78280003051811e-05
-8.129369039444639e-05
-7.57822537575348e-05
-6.200366216525588e-05
-3.169076066224221e-05
4.133577477683014e-06
3.169076066224089e-05
5.373650720988717e-05
8.404940871290084e-05
0.00012814090180819342
0.00017498811322194178
0.000210812451361867
0.00023285819790951333
0.00025214822613870384
0.0002741939726863501
0.00029623971923399637
0.0003072625925078196
0.000301751155870908
0.0002879725642786291
0.0002852168459601733
0.0002852168459601733
0.0002769496910048059
0.00024388107118333642
0.000210812451361867
0.00018601098649576498
0.00017498811322194178
0.00015845380331120705
0.00012814090180819342
9.23165636682682e-05
6.200366216525454e-05
5.098078889143139e-05
3.720219729915245e-05
1.2400732433050376e-05
-2.066788738841907e-05
-4.2713633936065354e-05
-4.8225070572976926e-05
-5.098078889143272e-05
-6.200366216525588e-05
-8.404940871290214e-05
-9.78280003051811e-05
-0.00010058371862363688
-0.00010058371862363688
-0.00010333943694209268
-0.0001198737468528274
-0.0001336523384451063
-0.0001336523384451063
-0.00012538518348973897
-0.00012814090180819475
-0.0001391637750820179
-0.00014743093003738526
-0.0001364080567635621
-0.0001198737468528274
-0.00010885087357900426
-0.00011160659189746003
-0.00011436231021591582
-0.00011160659189746003
-9.507228198672531e-05
-7.302653543907902e-05
-6.200366216525588e-05
-5.6492225528344285e-05
-4.8225070572976926e-05
-2.8935042343786426e-05
-1.5156450751507488e-05
-1.7912169069963278e-05
-3.4446478980697995e-05
-5.098078889143272e-05
-5.3736507209888505e-05
-5.098078889143272e-05
-0.00010885087357900426
-0.00012814090180819475
-0.00012814090180819475
-0.00012538518348973897
-0.00013089662012665053
-0.00014191949340047367
-0.00014743093003738526
-0.00014467521171892948
-0.0001336523384451063
-0.00013089662012665053
-0.0001391637750820179
-0.000150186648355841
-0.000150186648355841
-0.00014743093003738526
-0.00014467521171892948
-0.0001391637750820179
-8.956084534981374e-05
9.23165636682682e-05
0.0004781171282520784
0.0009961921721217662
0.0014398628213931478
0.0016272516670481415
0.0014067942015716782
0.0008198261997405958
0.00019152242313267648
-0.00023010247959105888
-0.0003651326771953924
-0.0003155297474631883
-0.0002631710994125282
-0.00023561391622797047
-0.0002190796063172357
-0.00022459104295414727
-0.00023010247959105888
-0.0002218353246356915
-0.00020254529640650095
-0.00019152242313267784
-0.00019703385976958942
-0.0001997895780880452
-0.00018876670481422206
-0.00017223239490348733
-0.0001612095216296642
-0.00016672095826657574
-0.00016947667658503157
-0.00016396523994811996
-0.00014743093003738526
-0.00013089662012665053
-0.00013089662012665053
-0.0001364080567635621
-0.00012814090180819475
-0.00010885087357900426
-8.956084534981374e-05
-7.57822537575348e-05
-7.57822537575348e-05
-6.475938048371164e-05
-3.4446478980697995e-05
1.3778591592272275e-06
3.169076066224089e-05
5.649222552834297e-05
8.404940871290084e-05
0.00013089662012664922
0.00018049954985885336
0.0002190796063172344
0.00024112535286488067
0.000263171099412527
0.00029072828259708476
0.0003348197756923775
0.0003293083390554659
0.000315529747463187
0.0003072625925078196
0.00031001831082627527
0.00030450687418936376
0.0002769496910048059
0.00024388107118333642
0.0002190796063172344
0.00020254529640649968
0.00018601098649576498
0.00016120952162966288
0.0001253851834897376
9.23165636682682e-05
7.578225375753347e-05
6.475938048371032e-05
3.720219729915245e-05
1.3778591592272275e-06
-2.6179324025330647e-05
-3.720219729915378e-05
-3.720219729915378e-05
