-0.0003568655222400251
-0.00035410980392156926
-0.0003568655222400251
-0.00032655262073701135
-0.00016947667658503157
0.0001694766765850302
0.0006462159456778814
0.0011009094682230861
0.0013406569619287395
0.0012083824826428621
0.0007426660868238338
0.000172232394903486
-0.00027419397268635144
-0.0004615828183413449
-0.000447804226749066
-0.0004202470435645082
-0.0004257584802014197
-0.00043678135347524285
-0.00044504850843061025
-0.000447804226749066
-0.00043953707179369863
-0.0004312699168383313
-0.0004312699168383313
-0.00043953707179369863
-0.00043678135347524285
-0.0004285141985198755
-0.0004202470435645082
-0.00041749132524605234
-0.000423002761882964
-0.0004202470435645082
-0.00040922417029068495
-0.0003982012970168618
-0.0003954455786984061
-0.0003982012970168618
-0.0003954455786984061
-0.0003871784237430386
-0.00037615555046921565
-0.0003651326771953924
-0.0003596212405584808
-0.0003596212405584808
-0.00035410980392156926
-0.0003293083390554673
-0.0003210411841000998
-0.00031828546578164407
-0.0003100183108262768
-0.00028797256427863044
-0.0002631710994125282
-0.0002549039444571609
-0.00024939250782024937
-0.00023836963454642628
-0.0002108124513618684
-0.00018325526817731047
-0.00016672095826657574
-0.00015569808499275262
-0.00014191949340047367
-0.0001171180285343716
-9.78280003051811e-05
-8.129369039444639e-05
-7.302653543907902e-05
-6.475938048371164e-05
-5.098078889143272e-05
-3.720219729915378e-05
-3.169076066224221e-05
-3.4446478980697995e-05
-3.995791561760957e-05
-3.995791561760957e-05
-3.995791561760957e-05
-4.8225070572976926e-05
-6.475938048371164e-05
-8.404940871290214e-05
-9.507228198672531e-05
-0.00010333943694209268
-0.0001171180285343716
-0.0001391637750820179
-0.00016396523994811996
-0.00019152242313267784
-0.0002080567330434125
-0.0002218353246356915
-0.00024112535286488197
-0.0002686825360494398
-0.00029072828259708617
-0.0002989954375524536
-0.00030175115587090934
-0.0003155297474631883
-0.0003320640573739229
-0.0003375754940108345
-0.0003403312123292903
-0.0003375754940108345
-0.0003403312123292903
-0.0003513540856031135
-0.0003596212405584808
-0.0003568655222400251
-0.0003458426489662019
-0.0003430869306477461
-0.0003485983672846577
-0.0003596212405584808
-0.0003596212405584808
-0.0003513540856031135
-0.0003485983672846577
-0.0003513540856031135
-0.0003596212405584808
-0.0003596212405584808
-0.0003513540856031135
-0.0003458426489662019
-0.0003458426489662019
-0.0003568655222400251
-0.0003485983672846577
-0.0003430869306477461
-0.0003458426489662019
-0.0003458426489662019
-0.0003348197756923787
-0.00032655262073701135
-0.0003127740291447324
-0.0003100183108262768
-0.0003155297474631883
-0.00031828546578164407
-0.0002989954375524536
-0.00027143825436789566
-0.0002549039444571609
-0.00024388107118333775
-0.00024112535286488197
-0.00023561391622797047
-0.00023010247959105888
-0.00023285819790951464
-0.0002466367895017936
-0.00026592681773098404
-0.0002852168459601746
-0.0002989954375524536
-0.0003155297474631883
-0.0003348197756923787
-0.00035410980392156926
-0.0003596212405584808
-0.00035410980392156926
-0.0003485983672846577
-0.00035410980392156926
-0.0003651326771953924
-0.000370644113832304
-0.0003596212405584808
-0.00035410980392156926
-0.00035410980392156926
-0.00036237695887693665
-0.00036788839551384826
-0.00036237695887693665
-0.0003458426489662019
-0.0003403312123292903
-0.0002824611276417188
-5.9247943846800084e-05
0.00035410980392156795
0.0008721848477912556
0.0012800311589227123
0.0013902598916609437
0.0011064209048599978
0.0005800787060349425
4.271363393606403e-05
-0.00032379690241855563
-0.0004285141985198755
-0.0004147356069275966
-0.00041749132524605234
-0.000423002761882964
-0.0004257584802014197
-0.0004285141985198755
-0.00043953707179369863
-0.0004422927901121546
-0.0004312699168383313
-0.0004285141985198755
-0.0004285141985198755
-0.0004312699168383313
-0.00043402563515678713
-0.0004257584802014197
-0.0004147356069275966
-0.00040922417029068495
-0.00041749132524605234
-0.00040646845197222917
-0.0003954455786984061
-0.0003871784237430386
-0.0003816669871061273
-0.0003844227054245829
-0.00037615555046921565
-0.00036237695887693665
-0.00035410980392156926
-0.00035410980392156926
-0.0003513540856031135
-0.0003403312123292903
-0.00032379690241855563
-0.0003100183108262768
-0.0003045068741893651
-0.0003045068741893651
-0.00028797256427863044
-0.00026592681773098404
-0.00024939250782024937
-0.00023561391622797047
-0.00022459104295414727
-0.00020530101472495681
-0.00018049954985885472
-0.00015294236667429682
-0.0001336523384451063
-0.0001226294651712832
-0.00011160659189746003
-8.956084534981374e-05
-6.475938048371164e-05
-5.3736507209888505e-05
-5.098078889143272e-05
-4.8225070572976926e-05
-3.995791561760957e-05
-2.8935042343786426e-05
-2.6179324025330647e-05
-3.4446478980697995e-05
-4.2713633936065354e-05
-5.098078889143272e-05
-5.3736507209888505e-05
-6.200366216525588e-05
-8.129369039444639e-05
-0.00010333943694209268
-0.0001226294651712832
-0.0001336523384451063
-0.00014467521171892948
-0.00016947667658503157
-0.0001997895780880452
-0.0002218353246356915
-0.00023561391622797047
-0.0002466367895017936
-0.00026592681773098404
-0.00028797256427863044
-0.00030726259250782084
-0.0003127740291447324
-0.0003127740291447324
-0.0003210411841000998
-0.0003293083390554673
-0.0003375754940108345
-0.0003430869306477461
-0.0003403312123292903
-0.0003375754940108345
-0.0003430869306477461
-0.0003513540856031135
-0.0003485983672846577
-0.0003430869306477461
-0.0003403312123292903
-0.0003568655222400251
-0.0003568655222400251
-0.0003458426489662019
-0.0003348197756923787
-0.0003430869306477461
-0.00035410980392156926
-0.0003568655222400251
-0.0003485983672846577
-0.0003403312123292903
-0.0003430869306477461
-0.0003513540856031135
-0.00035410980392156926
-0.0003485983672846577
-0.0003375754940108345
-0.0003320640573739229
-0.0003293083390554673
-0.00032655262073701135
-0.00031828546578164407
-0.00030175115587090934
-0.0002962397192339978
-0.00030175115587090934
-0.0003045068741893651
-0.00027970540932326305
-0.00024939250782024937
-0.00022734676127260308
-0.00022459104295414727
-0.00022734676127260308
-0.00022459104295414727
-0.00022459104295414727
-0.00022734676127260308
-0.00024112535286488197
-0.00026592681773098404
-0.00029348400091554195
-0.0003100183108262768
-0.00031828546578164407
-0.0003320640573739229
-0.0003458426489662019
-0.0003513540856031135
-0.0003513540856031135
-0.0003513540856031135
-0.0003513540856031135
-0.0003568655222400251
-0.00036237695887693665
-0.0003513540856031135
-0.0003458426489662019
-0.0003458426489662019
-0.0003568655222400251
-0.0003651326771953924
-0.0003568655222400251
-0.0003485983672846577
-0.0003320640573739229
-0.0002190796063172357
7.578225375753347e-05
0.0005497658045319286
0.0010650851300831607
0.001401282764934767
0.0013737255817502093
0.0009769021438925758
0.00042024704356450677
-7.85379720759906e-05
-0.00036237695887693665
-0.00040646845197222917
-0.0003982012970168618
-0.0004147356069275966
-0.0004202470435645082
-0.000423002761882964
-0.00043402563515678713
-0.00043678135347524285
-0.0004285141985198755
-0.00041749132524605234
-0.0004202470435645082
-0.0004257584802014197
-0.0004257584802014197
-0.0004202470435645082
-0.00041197988860914084
-0.00040646845197222917
-0.00040646845197222917
-0.00040646845197222917
-0.00040095701533531767
-0.0003844227054245829
-0.00037615555046921565
-0.00037891126878767127
-0.00037891126878767127
-0.00037615555046921565
-0.0003596212405584808
-0.0003485983672846577
-0.0003485983672846577
-0.0003485983672846577
-0.0003375754940108345
-0.00031828546578164407
-0.00030175115587090934
-0.0002962397192339978
-0.00029348400091554195
-0.0002824611276417188
-0.00025765966277561676
-0.00023010247959105888
-0.0002190796063172357
-0.0002108124513618684
-0.0001997895780880452
-0.00017223239490348733
-0.00014467521171892948
-0.00012538518348973897
-0.00011436231021591582
-0.00010609515526054846
-8.680512703135793e-05
-6.475938048371164e-05
-5.098078889143272e-05
-5.098078889143272e-05
-5.3736507209888505e-05
-4.5469352254521147e-05
-3.720219729915378e-05
-3.4446478980697995e-05
-3.995791561760957e-05
-5.098078889143272e-05
-5.9247943846800084e-05
-5.9247943846800084e-05
-7.027081712062322e-05
-8.956084534981374e-05
-0.00011436231021591582
-0.00013089662012665053
-0.0001391637750820179
-0.00015569808499275262
-0.0001777438315403989
-0.00020530101472495681
-0.00022734676127260308
-0.00024388107118333775
-0.0002549039444571609
-0.00027419397268635144
-0.0002962397192339978
-0.0003127740291447324
-0.00031828546578164407
-0.0003210411841000998
-0.0003348197756923787
-0.0003485983672846577
-0.0003485983672846577
-0.0003430869306477461
-0.0003403312123292903
-0.0003485983672846577
-0.0003596212405584808
-0.0003596212405584808
-0.00035410980392156926
-0.0003485983672846577
-0.00035410980392156926
-0.00036237695887693665
-0.0003651326771953924
-0.0003568655222400251
-0.0003485983672846577
-0.0003485983672846577
-0.0003596212405584808
-0.0003651326771953924
-0.00035410980392156926
-0.0003458426489662019
-0.0003485983672846577
-0.0003568655222400251
-0.00036237695887693665
-0.0003568655222400251
-0.0003485983672846577
-0.0003403312123292903
-0.0003403312123292903
-0.0003375754940108345
-0.0003293083390554673
-0.0003155297474631883
-0.0003100183108262768
-0.0003127740291447324
-0.0003127740291447324
-0.00029348400091554195
-0.0002631710994125282
-0.00024112535286488197
-0.00023561391622797047
-0.00023836963454642628
-0.00023836963454642628
-0.00023561391622797047
-0.00023836963454642628
-0.0002549039444571609
-0.00027694969100480727
-0.0003045068741893651
-0.0003210411841000998
-0.0003320640573739229
-0.0003458426489662019
-0.0003596212405584808
-0.00036788839551384826
-0.0003651326771953924
-0.0003596212405584808
-0.0003596212405584808
-0.00036788839551384826
-0.00037615555046921565
-0.00036788839551384826
-0.0003596212405584808
-0.0003568655222400251
-0.0003651326771953924
-0.00037339983215075977
-0.00036788839551384826
-0.0003568655222400251
-0.0003375754940108345
-0.00020530101472495681
0.0006103916075379561
0.0011201994964522765
0.0014260842298008686
0.0013571912718394743
0.0009245434958419158
0.0003568655222400236
-0.0001336523384451063
-0.0003871784237430386
-0.00040922417029068495
-0.00041197988860914084
-0.0004312699168383313
-0.00043402563515678713
-0.0004312699168383313
-0.00043402563515678713
-0.00044504850843061025
-0.000447804226749066
-0.0004422927901121546
-0.0004312699168383313
-0.0004285141985198755
-0.0004312699168383313
-0.00043402563515678713
-0.0004285141985198755
-0.00041749132524605234
-0.00041197988860914084
-0.00041197988860914084
-0.0004147356069275966
-0.00040922417029068495
-0.0003982012970168618
-0.0003816669871061273
-0.0003844227054245829
-0.0003899341420614945
-0.0003816669871061273
-0.00036788839551384826
-0.0003568655222400251
-0.0003485983672846577
-0.0003485983672846577
-0.0003430869306477461
-0.00032655262073701135
-0.0003127740291447324
-0.0003045068741893651
-0.00029348400091554195
-0.0002824611276417188
-0.0002604153810940725
-0.00023836963454642628
-0.0002218353246356915
-0.00021632388799877996
-0.0001997895780880452
-0.00017498811322194308
-0.00014467521171892948
-0.0001198737468528274
-0.00011160659189746003
-0.00010058371862363688
-8.129369039444639e-05
-5.9247943846800084e-05
-4.8225070572976926e-05
-4.5469352254521147e-05
-4.5469352254521147e-05
-3.995791561760957e-05
-3.4446478980697995e-05
-2.8935042343786426e-05
-3.720219729915378e-05
-5.098078889143272e-05
-5.9247943846800084e-05
-6.475938048371164e-05
-7.302653543907902e-05
-9.231656366826955e-05
-0.00013089662012665053
-0.00014191949340047367
-0.00015294236667429682
-0.00017498811322194308
-0.00020530101472495681
-0.00023285819790951464
-0.0002466367895017936
-0.00025765966277561676
-0.00027419397268635144
-0.0002962397192339978
-0.0003127740291447324
-0.00031828546578164407
-0.0003155297474631883
-0.00031828546578164407
-0.0003320640573739229
-0.0003458426489662019
-0.0003485983672846577
-0.0003430869306477461
-0.0003430869306477461
-0.0003458426489662019
-0.00035410980392156926
-0.0003568655222400251
-0.0003513540856031135
-0.0003458426489662019
-0.0003513540856031135
-0.0003596212405584808
-0.00036237695887693665
-0.0003513540856031135
-0.0003458426489662019
-0.0003513540856031135
-0.0003596212405584808
-0.0003596212405584808
-0.0003568655222400251
-0.0003485983672846577
-0.0003458426489662019
-0.0003568655222400251
-0.0003596212405584808
-0.00035410980392156926
-0.0003458426489662019
-0.0003375754940108345
-0.0003375754940108345
-0.0003348197756923787
-0.00032655262073701135
-0.0003155297474631883
-0.0003045068741893651
-0.0003127740291447324
-0.0003155297474631883
-0.0002962397192339978
-0.00026592681773098404
-0.0002466367895017936
-0.00024112535286488197
-0.00024112535286488197
-0.00024112535286488197
-0.00023561391622797047
-0.00024112535286488197
-0.00025765966277561676
-0.00027970540932326305
-0.00030726259250782084
-0.00032655262073701135
-0.0003320640573739229
-0.0003403312123292903
-0.0003596212405584808
-0.00037339983215075977
-0.00036788839551384826
-0.0003651326771953924
-0.000370644113832304
-0.00037615555046921565
-0.00037339983215075977
-0.00036788839551384826
-0.00036788839551384826
-0.000370644113832304
-0.00037891126878767127
-0.00037615555046921565
-0.000370644113832304
-0.0003458426489662019
-0.00021632388799877996
8.129369039444505e-05
0.0005359872129396498
0.0010044593270771337
0.0012827868772411677
0.0012111382009613175
0.0008032918898298613
0.0002741939726863501
-0.00017498811322194308
-0.00040922417029068495
-0.0004312699168383313
-0.000423002761882964
-0.00043402563515678713
-0.00043402563515678713
-0.0004312699168383313
-0.0004312699168383313
-0.00043678135347524285
-0.0004422927901121546
-0.00043953707179369863
-0.0004312699168383313
-0.0004257584802014197
-0.0004285141985198755
-0.00043402563515678713
-0.0004312699168383313
-0.00041749132524605234
-0.00040922417029068495
-0.00040922417029068495
-0.00041749132524605234
-0.0004147356069275966
-0.00040095701533531767
-0.00039268986037995033
-0.0003871784237430386
-0.0003899341420614945
-0.0003871784237430386
-0.00037339983215075977
-0.00036237695887693665
-0.0003596212405584808
-0.00036237695887693665
-0.00035410980392156926
-0.0003375754940108345
-0.0003210411841000998
-0.0003155297474631883
-0.0003127740291447324
-0.0002989954375524536
-0.0002824611276417188
-0.0002604153810940725
-0.00024388107118333775
-0.00023561391622797047
-0.00022734676127260308
-0.00020530101472495681
-0.0001777438315403989
-0.0001584538033112084
-0.000150186648355841
-0.00014467521171892948
-0.00013089662012665053
-9.507228198672531e-05
-9.231656366826955e-05
-9.507228198672531e-05
-8.956084534981374e-05
-8.404940871290214e-05
-7.85379720759906e-05
-8.680512703135793e-05
-0.00010333943694209268
-0.00011436231021591582
-0.0001171180285343716
-0.0001226294651712832
-0.0001391637750820179
-0.0001584538033112084
-0.00018049954985885472
-0.00019152242313267784
-0.00019703385976958942
-0.0002190796063172357
-0.0002466367895017936
-0.0002686825360494398
-0.00027970540932326305
-0.00029072828259708617
-0.0003045068741893651
-0.0003210411841000998
-0.0003375754940108345
-0.0003430869306477461
-0.0003430869306477461
-0.0003458426489662019
-0.0003513540856031135
-0.0003651326771953924
-0.00036788839551384826
-0.00036237695887693665
-0.0003596212405584808
-0.0003651326771953924
-0.00037615555046921565
-0.00037615555046921565
-0.00036788839551384826
-0.0003651326771953924
-0.00036788839551384826
-0.00037615555046921565
-0.00037891126878767127
-0.00037339983215075977
-0.00036788839551384826
-0.000370644113832304
-0.00037891126878767127
-0.0003844227054245829
-0.00037891126878767127
-0.00036788839551384826
-0.0003651326771953924
-0.00037615555046921565
-0.0003816669871061273
-0.00037891126878767127
-0.00036788839551384826
-0.00036237695887693665
-0.000370644113832304
-0.00037339983215075977
-0.00036237695887693665
-0.0003458426489662019
-0.0003320640573739229
-0.0003320640573739229
-0.0003348197756923787
-0.0003320640573739229
-0.00032379690241855563
-0.00030726259250782084
-0.00028797256427863044
-0.00027694969100480727
-0.00026592681773098404
-0.00024112535286488197
-0.0002466367895017936
-0.0002631710994125282
-0.00027694969100480727
-0.00028797256427863044
-0.0003045068741893651
-0.0003293083390554673
-0.0003568655222400251
-0.000370644113832304
-0.00037339983215075977
-0.00037339983215075977
-0.00037339983215075977
-0.0003844227054245829
-0.00039268986037995033
-0.00039268986037995033
-0.0003844227054245829
-0.0003844227054245829
-0.0003871784237430386
-0.00039268986037995033
-0.0003899341420614945
-0.00037891126878767127
-0.00037615555046921565
-0.00037891126878767127
-0.0003816669871061273
-0.0003375754940108345
-0.00017223239490348733
0.00015294236667429551
0.0005663001144426635
0.0009328106507972832
0.0010953980315861747
0.0009548563973449294
0.0005552772411688404
0.00010609515526054714
-0.0002631710994125282
-0.000423002761882964
-0.0004202470435645082
-0.00041749132524605234
-0.0004285141985198755
-0.00043953707179369863
-0.000447804226749066
-0.000447804226749066
-0.00043953707179369863
-0.00043953707179369863
-0.0004422927901121546
-0.00045055994506752175
-0.000447804226749066
-0.00043678135347524285
-0.0004312699168383313
-0.00043402563515678713
-0.00043678135347524285
-0.00043402563515678713
-0.000423002761882964
-0.0004147356069275966
-0.0004147356069275966
-0.00041749132524605234
-0.0004147356069275966
-0.00040095701533531767
-0.0003899341420614945
-0.0003844227054245829
-0.0003871784237430386
-0.0003899341420614945
-0.00037339983215075977
-0.0003568655222400251
-0.0003513540856031135
-0.00035410980392156926
-0.0003375754940108345
-0.00032379690241855563
-0.0003127740291447324
-0.0003100183108262768
-0.0002989954375524536
-0.0002824611276417188
-0.00025765966277561676
-0.00023836963454642628
-0.00023010247959105888
-0.00022459104295414727
-0.0002108124513618684
-0.00019427814145113364
-0.0001777438315403989
-0.00016947667658503157
-0.0001612095216296642
-0.00015294236667429682
-0.0001391637750820179
-0.00012814090180819475
-0.00013089662012665053
-0.0001364080567635621
-0.0001364080567635621
-0.0001364080567635621
-0.0001336523384451063
-0.0001364080567635621
-0.00015294236667429682
-0.00016947667658503157
-0.00017223239490348733
-0.0001777438315403989
-0.00019152242313267784
-0.0002108124513618684
-0.00023561391622797047
-0.00024939250782024937
-0.00025765966277561676
-0.00027143825436789566
-0.00028797256427863044
-0.0003127740291447324
-0.0003210411841000998
-0.0003210411841000998
-0.00032655262073701135
-0.0003403312123292903
-0.00035410980392156926
-0.0003596212405584808
-0.0003568655222400251
-0.0003513540856031135
-0.0003596212405584808
-0.000370644113832304
-0.000370644113832304
-0.0003651326771953924
-0.00036237695887693665
-0.0003651326771953924
-0.00037615555046921565
-0.00037891126878767127
-0.000370644113832304
-0.00036237695887693665
-0.0003651326771953924
-0.00037339983215075977
-0.00037891126878767127
-0.00037615555046921565
-0.0003596212405584808
-0.0003596212405584808
-0.00036788839551384826
-0.00037339983215075977
-0.00037339983215075977
-0.0003651326771953924
-0.0003568655222400251
-0.000370644113832304
-0.00036788839551384826
-0.0003513540856031135
-0.0003348197756923787
-0.00032655262073701135
-0.0003293083390554673
-0.00032379690241855563
-0.0003127740291447324
-0.00030726259250782084
-0.0003045068741893651
-0.0002962397192339978
-0.00027694969100480727
-0.0002549039444571609
-0.00023836963454642628
-0.00023285819790951464
-0.00024112535286488197
-0.0002521482261387052
-0.0002549039444571609
-0.0002604153810940725
-0.00027694969100480727
-0.0003127740291447324
-0.0003403312123292903
-0.0003513540856031135
-0.00035410980392156926
-0.0003568655222400251
-0.00036788839551384826
-0.00037891126878767127
-0.00037891126878767127
-0.000370644113832304
-0.000370644113832304
-0.00037615555046921565
-0.00037615555046921565
-0.00037339983215075977
-0.00036788839551384826
-0.00036237695887693665
-0.00036788839551384826
-0.00037339983215075977
-0.00036788839551384826
-0.0003320640573739229
-0.00018876670481422206
0.00010609515526054714
0.0005277200579842825
0.0009410778057526506
0.001180825299458304
0.0011009094682230861
0.000701330312046997
0.00020254529640649968
-0.00021356816968032413
-0.00040095701533531767
-0.00039268986037995033
-0.00039268986037995033
-0.00041749132524605234
-0.0004312699168383313
-0.00043402563515678713
-0.000423002761882964
-0.00041749132524605234
-0.0004285141985198755
-0.00043402563515678713
-0.0004312699168383313
-0.0004202470435645082
-0.00040922417029068495
-0.00041197988860914084
-0.0004202470435645082
-0.000423002761882964
-0.00040922417029068495
-0.0003954455786984061
-0.00040095701533531767
-0.0003982012970168618
-0.0003871784237430386
-0.00037339983215075977
-0.00036788839551384826
-0.000370644113832304
-0.00036788839551384826
-0.0003568655222400251
-0.0003430869306477461
-0.0003320640573739229
-0.0003293083390554673
-0.00032655262073701135
-0.0003155297474631883
-0.0002962397192339978
-0.0002824611276417188
-0.00027970540932326305
-0.00027694969100480727
-0.0002604153810940725
-0.00023561391622797047
-0.0002108124513618684
-0.0001997895780880452
-0.00019152242313267784
-0.00017223239490348733
-0.000150186648355841
-0.0001336523384451063
-0.0001226294651712832
-0.0001171180285343716
-0.00010885087357900426
-9.231656366826955e-05
-7.85379720759906e-05
-7.302653543907902e-05
-8.129369039444639e-05
-8.404940871290214e-05
-7.57822537575348e-05
-6.475938048371164e-05
-7.027081712062322e-05
-8.680512703135793e-05
-0.00010609515526054846
-0.00010885087357900426
-0.00010885087357900426
-0.0001198737468528274
-0.00014191949340047367
-0.00016672095826657574
-0.00018325526817731047
-0.00019427814145113364
-0.0002080567330434125
-0.00023285819790951464
-0.0002549039444571609
-0.0002686825360494398
-0.00027694969100480727
-0.0002852168459601746
-0.00030175115587090934
-0.0003155297474631883
-0.00032379690241855563
-0.0003210411841000998
-0.0003210411841000998
-0.0003320640573739229
-0.0003403312123292903
-0.0003458426489662019
-0.0003375754940108345
-0.0003348197756923787
-0.0003403312123292903
-0.0003458426489662019
-0.0003513540856031135
-0.0003430869306477461
-0.0003375754940108345
-0.0003430869306477461
-0.0003513540856031135
-0.0003485983672846577
-0.0003403312123292903
-0.0003348197756923787
-0.0003403312123292903
-0.0003513540856031135
-0.0003485983672846577
-0.0003375754940108345
-0.0003320640573739229
-0.0003348197756923787
-0.0003403312123292903
-0.0003375754940108345
-0.00032379690241855563
-0.0003100183108262768
-0.0003045068741893651
-0.0003045068741893651
-0.0002989954375524536
-0.00029072828259708617
-0.0002824611276417188
-0.00027419397268635144
-0.0002604153810940725
-0.0002466367895017936
-0.0002218353246356915
-0.0002080567330434125
-0.00020530101472495681
-0.00021356816968032413
-0.00022734676127260308
-0.00023285819790951464
-0.00023836963454642628
-0.0002549039444571609
-0.00028797256427863044
-0.00030726259250782084
-0.00031828546578164407
-0.0003210411841000998
-0.00032379690241855563
-0.0003348197756923787
-0.0003458426489662019
-0.0003458426489662019
-0.0003320640573739229
-0.00032655262073701135
-0.0003293083390554673
-0.0003375754940108345
-0.0003403312123292903
-0.0003348197756923787
-0.00032655262073701135
-0.0003293083390554673
-0.0003293083390554673
-0.0003155297474631883
-0.00019703385976958942
9.23165636682682e-05
0.0005332314946211942
0.000998947890440222
0.0012965654688334468
0.0012497182574196988
0.0008418719462882423
0.0002769496910048059
-0.00020530101472495681
-0.00043953707179369863
-0.0004285141985198755
-0.0003871784237430386
-0.0003871784237430386
-0.0003982012970168618
-0.00040922417029068495
-0.00040095701533531767
-0.0003954455786984061
-0.0003982012970168618
-0.00040095701533531767
-0.00040095701533531767
-0.0003899341420614945
-0.00037891126878767127
-0.00037891126878767127
-0.0003816669871061273
-0.0003816669871061273
-0.00037339983215075977
-0.00036237695887693665
-0.0003596212405584808
-0.0003651326771953924
-0.00036237695887693665
-0.00035410980392156926
-0.0003403312123292903
-0.0003320640573739229
-0.0003293083390554673
-0.0003293083390554673
-0.00031828546578164407
-0.0002989954375524536
-0.00028797256427863044
-0.0002852168459601746
-0.0002824611276417188
-0.00026592681773098404
-0.0002466367895017936
-0.00023010247959105888
-0.0002218353246356915
-0.00021356816968032413
-0.00019427814145113364
-0.00016947667658503157
-0.00015294236667429682
-0.0001391637750820179
-0.00012538518348973897
-0.00010885087357900426
-8.956084534981374e-05
-6.751509880216745e-05
-5.098078889143272e-05
-4.5469352254521147e-05
-3.720219729915378e-05
-2.6179324025330647e-05
-1.240073243305171e-05
-4.133577477684346e-06
-6.889295796140132e-06
-9.64501411459592e-06
-6.889295796140132e-06
-4.133577477684346e-06
-9.64501411459592e-06
-2.6179324025330647e-05
-4.5469352254521147e-05
-5.3736507209888505e-05
-5.9247943846800084e-05
-7.302653543907902e-05
-9.78280003051811e-05
-0.00012538518348973897
-0.00014743093003738526
-0.0001612095216296642
-0.0001777438315403989
-0.00020530101472495681
-0.00023285819790951464
-0.0002521482261387052
-0.0002604153810940725
-0.00026592681773098404
-0.00027970540932326305
-0.0003045068741893651
-0.0003045068741893651
-0.0002989954375524536
-0.00030175115587090934
-0.00031828546578164407
-0.00032379690241855563
-0.0003210411841000998
-0.0003100183108262768
-0.0003127740291447324
-0.0003210411841000998
-0.00032655262073701135
-0.00032655262073701135
-0.0003155297474631883
-0.0003100183108262768
-0.0003155297474631883
-0.00032655262073701135
-0.0003210411841000998
-0.0003127740291447324
-0.0003100183108262768
-0.0003127740291447324
-0.00031828546578164407
-0.0003210411841000998
-0.0003127740291447324
-0.00030726259250782084
-0.0003045068741893651
-0.0003127740291447324
-0.0003127740291447324
-0.00030175115587090934
-0.00029072828259708617
-0.0002824611276417188
-0.0002824611276417188
-0.00027970540932326305
-0.00027143825436789566
-0.0002604153810940725
-0.0002521482261387052
-0.00024112535286488197
-0.00023010247959105888
-0.0002108124513618684
-0.00019152242313267784
-0.00018876670481422206
-0.00019427814145113364
-0.00020530101472495681
-0.00021632388799877996
-0.0002190796063172357
-0.00023010247959105888
-0.0002631710994125282
-0.00029072828259708617
-0.0003045068741893651
-0.00030726259250782084
-0.00030726259250782084
-0.0003155297474631883
-0.00032379690241855563
-0.00032655262073701135
-0.00032379690241855563
-0.00031828546578164407
-0.0003210411841000998
-0.0003293083390554673
-0.0003293083390554673
-0.0003210411841000998
-0.0003127740291447324
-0.0003155297474631883
-0.00031828546578164407
-0.0003127740291447324
-0.00023010247959105888
1.2400732433050376e-05
0.0009162763408865484
0.0012965654688334468
0.001379237018387121
0.0010761080033569843
0.0005304757763027383
-9.64501411459592e-06
-0.00035410980392156926
-0.00041749132524605234
-0.00037615555046921565
-0.00036788839551384826
-0.0003871784237430386
-0.00040371273365377345
-0.00040371273365377345
-0.0003954455786984061
-0.00039268986037995033
-0.0003954455786984061
-0.00040095701533531767
-0.00040371273365377345
-0.00039268986037995033
-0.00037891126878767127
-0.00037615555046921565
-0.0003844227054245829
-0.0003816669871061273
-0.00037339983215075977
-0.0003596212405584808
-0.00035410980392156926
-0.0003568655222400251
-0.0003568655222400251
-0.0003485983672846577
-0.0003320640573739229
-0.00032379690241855563
-0.00032379690241855563
-0.0003210411841000998
-0.0003100183108262768
-0.00029348400091554195
-0.00028797256427863044
-0.0002852168459601746
-0.00028797256427863044
-0.00027419397268635144
-0.0002521482261387052
-0.00023561391622797047
-0.00022734676127260308
-0.0002190796063172357
-0.0002080567330434125
-0.00018049954985885472
-0.00015569808499275262
-0.0001391637750820179
-0.00013089662012665053
-0.0001171180285343716
-8.956084534981374e-05
-6.200366216525588e-05
-4.5469352254521147e-05
-4.5469352254521147e-05
-3.995791561760957e-05
-2.342360570687485e-05
-6.889295796140132e-06
-1.377859159228559e-06
-6.889295796140132e-06
-6.889295796140132e-06
-1.377859159228559e-06
4.133577477683014e-06
-1.377859159228559e-06
-1.7912169069963278e-05
-3.4446478980697995e-05
-4.2713633936065354e-05
-5.098078889143272e-05
-8.956084534981374e-05
-0.0001171180285343716
-0.0001364080567635621
-0.000150186648355841
-0.00016672095826657574
-0.00018876670481422206
-0.0002190796063172357
-0.00024112535286488197
-0.0002466367895017936
-0.0002549039444571609
-0.0002631710994125282
-0.0002824611276417188
-0.0002962397192339978
-0.0002989954375524536
-0.0002962397192339978
-0.0002989954375524536
-0.0003100183108262768
-0.0003127740291447324
-0.0003100183108262768
-0.00030175115587090934
-0.00030175115587090934
-0.0003127740291447324
-0.0003210411841000998
-0.00031828546578164407
-0.0003100183108262768
-0.0003045068741893651
-0.0003100183108262768
-0.0003210411841000998
-0.0003210411841000998
-0.0003127740291447324
-0.0003100183108262768
-0.0003100183108262768
-0.00031828546578164407
-0.00031828546578164407
-0.00030726259250782084
-0.0003045068741893651
-0.00030726259250782084
-0.0003100183108262768
-0.0003045068741893651
-0.00029072828259708617
-0.00027419397268635144
-0.0002686825360494398
-0.00027143825436789566
-0.00027419397268635144
-0.0002686825360494398
-0.0002466367895017936
-0.00022459104295414727
-0.00021632388799877996
-0.0002108124513618684
-0.00019703385976958942
-0.00018601098649576628
-0.00018325526817731047
-0.00019427814145113364
-0.00021356816968032413
-0.00022459104295414727
-0.00023285819790951464
-0.0002549039444571609
-0.0002824611276417188
-0.00030726259250782084
-0.0003210411841000998
-0.00031828546578164407
-0.0003155297474631883
-0.00031828546578164407
-0.0003293083390554673
-0.0003320640573739229
-0.00031828546578164407
-0.0003210411841000998
-0.0003293083390554673
-0.0003320640573739229
-0.00032379690241855563
-0.0003155297474631883
-0.0003127740291447324
-0.0003155297474631883
-0.00022459104295414727
5.098078889143139e-05
0.0005056743114366363
0.0010099707637140451
0.0013682141451132974
0.0013957713282978553
0.0010568179751277937
0.0005194529030289152
-1.377859159228559e-06
-0.0003320640573739229
-0.00039268986037995033
-0.00036788839551384826
-0.00036788839551384826
-0.00037615555046921565
-0.0003899341420614945
-0.0003982012970168618
-0.0003982012970168618
-0.0003954455786984061
-0.0003899341420614945
-0.0003899341420614945
-0.00039268986037995033
-0.00039268986037995033
-0.0003871784237430386
-0.00037891126878767127
-0.00037339983215075977
-0.00037339983215075977
-0.000370644113832304
-0.00036237695887693665
-0.0003513540856031135
-0.0003485983672846577
-0.0003485983672846577
-0.0003485983672846577
-0.0003375754940108345
-0.00032655262073701135
-0.0003155297474631883
-0.0003127740291447324
-0.0003100183108262768
-0.00030175115587090934
-0.00028797256427863044
-0.00027143825436789566
-0.00026592681773098404
-0.0002604153810940725
-0.0002549039444571609
-0.00023561391622797047
-0.00021356816968032413
-0.00020254529640650095
-0.00019152242313267784
-0.00017498811322194308
-0.00014743093003738526
-0.0001226294651712832
-0.00010609515526054846
-9.78280003051811e-05
-8.129369039444639e-05
-5.9247943846800084e-05
-3.720219729915378e-05
-2.6179324025330647e-05
-2.066788738841907e-05
-4.133577477684346e-06
9.64501411459459e-06
1.7912169069961946e-05
9.64501411459459e-06
-1.377859159228559e-06
-4.133577477684346e-06
-4.133577477684346e-06
-9.64501411459592e-06
-2.6179324025330647e-05
-4.5469352254521147e-05
-5.6492225528344285e-05
-6.475938048371164e-05
-8.129369039444639e-05
-0.00010885087357900426
-0.0001364080567635621
-0.0001584538033112084
-0.00017223239490348733
-0.00018601098649576628
-0.00020530101472495681
-0.00023561391622797047
-0.0002521482261387052
-0.0002549039444571609
-0.00025765966277561676
-0.0002686825360494398
-0.0002824611276417188
-0.00029348400091554195
-0.00029348400091554195
-0.0002852168459601746
-0.00028797256427863044
-0.0002989954375524536
-0.0003045068741893651
-0.0003045068741893651
-0.0002962397192339978
-0.0002962397192339978
-0.0002989954375524536
-0.00030726259250782084
-0.0003045068741893651
-0.0002989954375524536
-0.0002989954375524536
-0.0003045068741893651
-0.0003100183108262768
-0.0003045068741893651
-0.0002989954375524536
-0.00029072828259708617
-0.0002962397192339978
-0.00030726259250782084
-0.0003100183108262768
-0.00030175115587090934
-0.00029348400091554195
-0.0002962397192339978
-0.00030175115587090934
-0.00030175115587090934
-0.00029072828259708617
-0.00027694969100480727
-0.00027143825436789566
-0.0002686825360494398
-0.00027143825436789566
-0.0002631710994125282
-0.0002549039444571609
-0.00024112535286488197
-0.00022734676127260308
-0.00021356816968032413
-0.00019703385976958942
-0.0001777438315403989
-0.00017498811322194308
-0.0001997895780880452
-0.0002108124513618684
-0.00021356816968032413
-0.00023010247959105888
-0.00025765966277561676
-0.0002852168459601746
-0.0002989954375524536
-0.00030175115587090934
-0.0002962397192339978
-0.00030726259250782084
-0.00031828546578164407
-0.00032379690241855563
-0.0003155297474631883
-0.00030726259250782084
-0.00030726259250782084
-0.0003155297474631883
-0.00031828546578164407
-0.0003127740291447324
-0.0003045068741893651
-0.0003045068741893651
-0.0003100183108262768
-0.0003045068741893651
-0.00019427814145113364
0.00010058371862363556
0.0005635443961242077
0.0010623294117647053
0.0014095499198901345
0.0014260842298008686
0.0010705965667200726
0.0005194529030289152
-6.889295796140132e-06
-0.00032655262073701135
-0.0003816669871061273
-0.00035410980392156926
-0.0003596212405584808
-0.00037339983215075977
-0.0003899341420614945
-0.00039268986037995033
-0.0003871784237430386
-0.0003816669871061273
-0.0003844227054245829
-0.0003899341420614945
-0.0003871784237430386
-0.00037891126878767127
-0.00036788839551384826
-0.000370644113832304
-0.00037339983215075977
-0.00037339983215075977
-0.00036237695887693665
-0.0003485983672846577
-0.0003458426489662019
-0.0003485983672846577
-0.0003485983672846577
-0.0003403312123292903
-0.00032655262073701135
-0.0003210411841000998
-0.0003210411841000998
-0.0003155297474631883
-0.00030726259250782084
-0.00029348400091554195
-0.0002824611276417188
-0.00027694969100480727
-0.00027694969100480727
-0.00026592681773098404
-0.0002466367895017936
-0.00022734676127260308
-0.0002108124513618684
-0.00019427814145113364
-0.00016672095826657574
-0.0001391637750820179
-0.0001226294651712832
-0.00011436231021591582
-9.78280003051811e-05
-7.302653543907902e-05
-4.8225070572976926e-05
-3.169076066224221e-05
-2.342360570687485e-05
-1.7912169069963278e-05
-6.889295796140132e-06
9.64501411459459e-06
2.066788738841773e-05
1.5156450751506162e-05
9.64501411459459e-06
6.8892957961388014e-06
9.64501411459459e-06
9.64501411459459e-06
-1.240073243305171e-05
-3.4446478980697995e-05
-4.8225070572976926e-05
-5.098078889143272e-05
-6.200366216525588e-05
-8.404940871290214e-05
-0.00011436231021591582
-0.0001364080567635621
-0.00014743093003738526
-0.0001612095216296642
-0.00018325526817731047
-0.0002108124513618684
-0.00023285819790951464
-0.00024112535286488197
-0.0002466367895017936
-0.0002604153810940725
-0.00027694969100480727
-0.0002852168459601746
-0.00028797256427863044
-0.0002852168459601746
-0.00028797256427863044
-0.00029348400091554195
-0.00030726259250782084
-0.0003045068741893651
-0.0002989954375524536
-0.0002962397192339978
-0.00030175115587090934
-0.0003100183108262768
-0.0003155297474631883
-0.0003100183108262768
-0.00030175115587090934
-0.00030726259250782084
-0.0003127740291447324
-0.0003100183108262768
-0.0003045068741893651
-0.0002989954375524536
-0.00030726259250782084
-0.0003155297474631883
-0.0003210411841000998
-0.0003127740291447324
-0.00030175115587090934
-0.00030175115587090934
-0.0003100183108262768
-0.0003127740291447324
-0.00030175115587090934
-0.00027694969100480727
-0.00027694969100480727
-0.00027694969100480727
-0.00027143825436789566
-0.0002604153810940725
-0.00024112535286488197
-0.00023285819790951464
-0.0002218353246356915
-0.00020530101472495681
-0.00018876670481422206
-0.00018049954985885472
-0.00018876670481422206
-0.00020530101472495681
-0.0002190796063172357
-0.00022459104295414727
-0.00024112535286488197
-0.00027143825436789566
-0.0002962397192339978
-0.0003100183108262768
-0.0003100183108262768
-0.0003100183108262768
-0.0003155297474631883
-0.00032655262073701135
-0.0003293083390554673
-0.00032655262073701135
-0.0003210411841000998
-0.0003127740291447324
-0.0003210411841000998
-0.00032379690241855563
-0.00031828546578164407
-0.0003127740291447324
-0.0003100183108262768
-0.00031828546578164407
-0.0003045068741893651
-0.0001612095216296642
0.00018049954985885336
0.0006737731288624392
0.0011642909895475692
0.0014563971313038828
0.0013875041733424878
0.0009686349889372082
0.0004064684519722279
-9.231656366826955e-05
-0.0003568655222400251
-0.00037339983215075977
-0.00035410980392156926
-0.00036788839551384826
-0.00037891126878767127
-0.0003899341420614945
-0.00039268986037995033
-0.0003899341420614945
-0.0003816669871061273
-0.00037891126878767127
-0.0003871784237430386
-0.0003871784237430386
-0.00037891126878767127
-0.000370644113832304
-0.000370644113832304
-0.00037615555046921565
-0.00037891126878767127
-0.000370644113832304
-0.0003568655222400251
-0.0003485983672846577
-0.0003485983672846577
-0.00035410980392156926
-0.0003375754940108345
-0.00032655262073701135
-0.0003210411841000998
-0.00032379690241855563
-0.0003210411841000998
-0.00030175115587090934
-0.00028797256427863044
-0.00027970540932326305
-0.00027970540932326305
-0.00027143825436789566
-0.0002521482261387052
-0.00022734676127260308
-0.0002108124513618684
-0.00020530101472495681
-0.00019152242313267784
-0.00016672095826657574
-0.0001364080567635621
-0.00011436231021591582
-0.00010333943694209268
-8.680512703135793e-05
-6.751509880216745e-05
-4.8225070572976926e-05
-2.8935042343786426e-05
-2.342360570687485e-05
-2.066788738841907e-05
-1.240073243305171e-05
4.133577477683014e-06
1.2400732433050376e-05
9.64501411459459e-06
-1.377859159228559e-06
-4.133577477684346e-06
-1.377859159228559e-06
-9.64501411459592e-06
-2.6179324025330647e-05
-4.8225070572976926e-05
-6.475938048371164e-05
-7.302653543907902e-05
-8.129369039444639e-05
-0.00010333943694209268
-0.00013089662012665053
-0.00015569808499275262
-0.00016672095826657574
-0.00017498811322194308
-0.00019703385976958942
-0.00022459104295414727
-0.0002466367895017936
-0.0002549039444571609
-0.00025765966277561676
-0.00027143825436789566
-0.0002852168459601746
-0.0002962397192339978
-0.0002962397192339978
-0.00029072828259708617
-0.0002962397192339978
-0.0003045068741893651
-0.0003155297474631883
-0.0003155297474631883
-0.0003100183108262768
-0.0003045068741893651
-0.0003127740291447324
-0.0003210411841000998
-0.00032379690241855563
-0.0003127740291447324
-0.00030726259250782084
-0.0003100183108262768
-0.0003210411841000998
-0.0003155297474631883
-0.0003100183108262768
-0.0003127740291447324
-0.0003210411841000998
-0.00032379690241855563
-0.0003155297474631883
-0.00030726259250782084
-0.0003045068741893651
-0.00030726259250782084
-0.00030175115587090934
-0.00029072828259708617
-0.00027970540932326305
-0.0002686825360494398
-0.00027419397268635144
-0.00027970540932326305
-0.00026592681773098404
-0.00023836963454642628
-0.0002190796063172357
-0.00021632388799877996
-0.00021632388799877996
-0.0002080567330434125
-0.0001997895780880452
-0.0001997895780880452
-0.00021632388799877996
-0.00023561391622797047
-0.00024939250782024937
-0.00026592681773098404
-0.0002824611276417188
-0.00030175115587090934
-0.0003155297474631883
-0.00032655262073701135
-0.00032655262073701135
-0.0003210411841000998
-0.00032379690241855563
-0.0003348197756923787
-0.0003403312123292903
-0.0003348197756923787
-0.00032655262073701135
-0.00032379690241855563
-0.0003348197756923787
-0.0003403312123292903
-0.0003375754940108345
-0.00032379690241855563
-0.00031828546578164407
-0.00024939250782024937
-3.169076066224221e-05
0.0003596212405584795
0.0008280933546959632
0.0011918481727321271
0.001271764003967345
0.0009906807354848547
0.000508430029755092
3.720219729915245e-05
-0.00029348400091554195
-0.0003816669871061273
-0.000370644113832304
-0.0003816669871061273
-0.0003844227054245829
-0.0003816669871061273
-0.0003844227054245829
-0.00039268986037995033
-0.0003982012970168618
-0.00039268986037995033
-0.0003844227054245829
-0.00037891126878767127
-0.0003899341420614945
-0.0003844227054245829
-0.00037339983215075977
-0.00036788839551384826
-0.000370644113832304
-0.00037339983215075977
-0.00036788839551384826
-0.0003568655222400251
-0.0003513540856031135
-0.0003513540856031135
-0.0003513540856031135
-0.0003458426489662019
-0.0003320640573739229
-0.00031828546578164407
-0.0003155297474631883
-0.0003210411841000998
-0.00031828546578164407
-0.0002989954375524536
-0.0002852168459601746
-0.00027694969100480727
-0.00027694969100480727
-0.0002686825360494398
-0.0002521482261387052
-0.00023010247959105888
-0.0002190796063172357
-0.0002080567330434125
-0.00019703385976958942
-0.0001777438315403989
-0.00015294236667429682
-0.0001336523384451063
-0.00013089662012665053
-0.00012538518348973897
-0.00010885087357900426
-8.956084534981374e-05
-7.57822537575348e-05
-7.302653543907902e-05
-7.57822537575348e-05
-7.027081712062322e-05
-5.6492225528344285e-05
-5.3736507209888505e-05
-6.475938048371164e-05
-7.57822537575348e-05
-8.404940871290214e-05
-8.129369039444639e-05
-8.404940871290214e-05
-0.00010333943694209268
-0.00012538518348973897
-0.0001391637750820179
-0.00014743093003738526
-0.00015569808499275262
-0.0001777438315403989
-0.00020254529640650095
-0.00022459104295414727
-0.00023561391622797047
-0.00024112535286488197
-0.0002549039444571609
-0.00027419397268635144
-0.00029072828259708617
-0.00029348400091554195
-0.00029072828259708617
-0.0002962397192339978
-0.0003127740291447324
-0.00032379690241855563
-0.0003210411841000998
-0.0003155297474631883
-0.00032379690241855563
-0.0003348197756923787
-0.0003348197756923787
-0.0003293083390554673
-0.00032379690241855563
-0.00032655262073701135
-0.0003375754940108345
-0.0003403312123292903
-0.0003320640573739229
-0.00032655262073701135
-0.0003320640573739229
-0.0003348197756923787
-0.0003430869306477461
-0.0003375754940108345
-0.0003320640573739229
-0.0003293083390554673
-0.0003375754940108345
-0.0003430869306477461
-0.0003375754940108345
-0.0003293083390554673
-0.00032655262073701135
-0.0003293083390554673
-0.00032655262073701135
-0.0003155297474631883
-0.0002989954375524536
-0.00028797256427863044
-0.00028797256427863044
-0.0002989954375524536
-0.00029072828259708617
-0.00026592681773098404
-0.00024112535286488197
-0.00023010247959105888
-0.00022734676127260308
-0.00022459104295414727
-0.00021632388799877996
-0.00021632388799877996
-0.00023010247959105888
-0.00024939250782024937
-0.0002686825360494398
-0.00028797256427863044
-0.0002989954375524536
-0.0003155297474631883
-0.0003320640573739229
-0.0003458426489662019
-0.0003458426489662019
-0.0003403312123292903
-0.0003375754940108345
-0.0003485983672846577
-0.00035410980392156926
-0.0003485983672846577
-0.0003375754940108345
-0.0003375754940108345
-0.0003430869306477461
-0.0003513540856031135
-0.0003513540856031135
-0.0003375754940108345
-0.00032655262073701135
-0.00027419397268635144
-0.00010058371862363688
0.00024112535286488067
0.0006627502555886161
0.000998947890440222
0.001103665186541542
0.0008887191577019906
0.0004726056916151668
-0.00026592681773098404
-0.000370644113832304
-0.00037339983215075977
-0.0003899341420614945
-0.0003954455786984061
-0.0003954455786984061
-0.00040095701533531767
-0.00040922417029068495
-0.0004147356069275966
-0.00040646845197222917
-0.0003954455786984061
-0.0003954455786984061
-0.00040371273365377345
-0.00040646845197222917
-0.00040095701533531767
-0.00039268986037995033
-0.0003871784237430386
-0.0003871784237430386
-0.00039268986037995033
-0.0003871784237430386
-0.00037339983215075977
-0.00036788839551384826
-0.000370644113832304
-0.00037339983215075977
-0.00036788839551384826
-0.0003513540856031135
-0.0003403312123292903
-0.0003375754940108345
-0.0003430869306477461
-0.0003348197756923787
-0.0003210411841000998
-0.0003045068741893651
-0.0002989954375524536
-0.00029348400091554195
-0.00028797256427863044
-0.00027143825436789566
-0.0002521482261387052
-0.00024112535286488197
-0.00023561391622797047
-0.00022734676127260308
-0.00020530101472495681
-0.00018049954985885472
-0.00016672095826657574
-0.00016396523994811996
-0.0001584538033112084
-0.00014191949340047367
-0.0001171180285343716
-0.00010333943694209268
-0.00010333943694209268
-0.00010609515526054846
-0.00010058371862363688
-8.680512703135793e-05
-8.129369039444639e-05
-8.680512703135793e-05
-9.507228198672531e-05
-0.00010058371862363688
-0.00010058371862363688
-0.00010333943694209268
-0.0001171180285343716
-0.0001364080567635621
-0.000150186648355841
-0.0001584538033112084
-0.00016672095826657574
-0.00018049954985885472
-0.0002080567330434125
-0.0002466367895017936
-0.0002521482261387052
-0.0002631710994125282
-0.0002852168459601746
-0.0002989954375524536
-0.00030726259250782084
-0.00030726259250782084
-0.0003100183108262768
-0.00031828546578164407
-0.0003293083390554673
-0.0003320640573739229
-0.00032655262073701135
-0.00032655262073701135
-0.0003293083390554673
-0.0003375754940108345
-0.0003375754940108345
-0.0003320640573739229
-0.00032379690241855563
-0.0003293083390554673
-0.0003375754940108345
-0.0003348197756923787
-0.0003320640573739229
-0.00032655262073701135
-0.0003293083390554673
-0.0003403312123292903
-0.0003430869306477461
-0.0003348197756923787
-0.00032655262073701135
-0.0003293083390554673
-0.0003375754940108345
-0.0003430869306477461
-0.0003375754940108345
-0.00032655262073701135
-0.0003210411841000998
-0.0003210411841000998
-0.0003210411841000998
-0.0003127740291447324
-0.0002962397192339978
-0.00028797256427863044
-0.0002824611276417188
-0.00029072828259708617
-0.0002852168459601746
-0.0002631710994125282
-0.00024112535286488197
-0.00022459104295414727
-0.0002218353246356915
-0.00021632388799877996
-0.00020530101472495681
-0.00020254529640650095
-0.00021632388799877996
-0.00023836963454642628
-0.0002521482261387052
-0.0002604153810940725
-0.00027419397268635144
-0.0002962397192339978
-0.00031828546578164407
-0.00032655262073701135
-0.0003293083390554673
-0.00032379690241855563
-0.00032655262073701135
-0.0003375754940108345
-0.0003430869306477461
-0.0003348197756923787
-0.00032379690241855563
-0.00032379690241855563
-0.0003293083390554673
-0.0003403312123292903
-0.0003293083390554673
-0.00031828546578164407
-0.00030175115587090934
-0.00018325526817731047
0.00010885087357900291
0.000547010086213473
0.0009879250171663987
0.001246962539101243
0.001178069581139848
0.0007812461432822147
0.0002686825360494386
-0.00016947667658503157
-0.00037891126878767127
-0.0003871784237430386
-0.00037615555046921565
-0.0003844227054245829
-0.0003871784237430386
-0.00039268986037995033
-0.00040095701533531767
-0.00040646845197222917
-0.00040371273365377345
-0.0003954455786984061
-0.0003899341420614945
-0.0003899341420614945
-0.0003982012970168618
-0.0003954455786984061
-0.0003844227054245829
-0.00037615555046921565
-0.00037339983215075977
-0.00037891126878767127
-0.00037339983215075977
-0.00036237695887693665
-0.00035410980392156926
-0.00035410980392156926
-0.00035410980392156926
-0.0003485983672846577
-0.0003348197756923787
-0.00031828546578164407
-0.0003155297474631883
-0.0003210411841000998
-0.0003127740291447324
-0.0002962397192339978
-0.0002824611276417188
-0.00027419397268635144
-0.0002686825360494398
-0.0002604153810940725
-0.0002466367895017936
-0.00023010247959105888
-0.0002108124513618684
-0.00020530101472495681
-0.00019427814145113364
-0.00017498811322194308
-0.00014743093003738526
-0.00012814090180819475
-0.0001198737468528274
-0.00011160659189746003
-9.231656366826955e-05
-7.302653543907902e-05
-5.6492225528344285e-05
-5.098078889143272e-05
-5.098078889143272e-05
-4.5469352254521147e-05
-3.169076066224221e-05
-2.066788738841907e-05
-3.4446478980697995e-05
-3.995791561760957e-05
-3.720219729915378e-05
-3.995791561760957e-05
-5.098078889143272e-05
-7.027081712062322e-05
-9.231656366826955e-05
-0.00010058371862363688
-0.00010333943694209268
-0.0001198737468528274
-0.00014743093003738526
-0.00017223239490348733
-0.00019427814145113364
-0.00020254529640650095
-0.0002190796063172357
-0.00024388107118333775
-0.0002604153810940725
-0.0002686825360494398
-0.00026592681773098404
-0.00027143825436789566
-0.0002852168459601746
-0.0002989954375524536
-0.00030726259250782084
-0.0003045068741893651
-0.0002989954375524536
-0.0003045068741893651
-0.0003127740291447324
-0.00031828546578164407
-0.0003127740291447324
-0.0003100183108262768
-0.0003127740291447324
-0.0003210411841000998
-0.00031828546578164407
-0.0003100183108262768
-0.0003045068741893651
-0.00030726259250782084
-0.0003210411841000998
-0.00032379690241855563
-0.0003155297474631883
-0.0003045068741893651
-0.00030175115587090934
-0.0003127740291447324
-0.00031828546578164407
-0.0003127740291447324
-0.0003045068741893651
-0.00030175115587090934
-0.00030726259250782084
-0.0003100183108262768
-0.00030726259250782084
-0.00029348400091554195
-0.0002824611276417188
-0.00027970540932326305
-0.0002824611276417188
-0.00027143825436789566
-0.0002631710994125282
-0.0002604153810940725
-0.00024939250782024937
-0.00023836963454642628
-0.0002218353246356915
-0.0001997895780880452
-0.00018325526817731047
-0.00018325526817731047
-0.00019152242313267784
-0.00020530101472495681
-0.0002108124513618684
-0.00024388107118333775
-0.00027419397268635144
-0.0002962397192339978
-0.00030175115587090934
-0.0003045068741893651
-0.0003045068741893651
-0.0003155297474631883
-0.00032655262073701135
-0.0003210411841000998
-0.0003127740291447324
-0.0003127740291447324
-0.0003210411841000998
-0.00032379690241855563
-0.0003210411841000998
-0.0003127740291447324
-0.0003100183108262768
-0.0003100183108262768
-0.00030726259250782084
-0.0002631710994125282
-8.129369039444639e-05
0.0002769496910048059
0.000753688960097657
0.001180825299458304
0.0013737255817502093
0.0011890924544136717
0.0006903074387731741
0.00012262946517128183
-0.0002962397192339978
-0.0004312699168383313
-0.0003899341420614945
-0.00036237695887693665
-0.00037339983215075977
-0.0003844227054245829
-0.0003954455786984061
-0.0003954455786984061
-0.0003871784237430386
-0.00037891126878767127
-0.0003844227054245829
-0.00039268986037995033
-0.0003899341420614945
-0.00037615555046921565
-0.00036237695887693665
-0.0003651326771953924
-0.000370644113832304
-0.00037339983215075977
-0.0003596212405584808
-0.0003458426489662019
-0.0003458426489662019
-0.0003513540856031135
-0.0003513540856031135
-0.0003348197756923787
-0.0003210411841000998
-0.0003155297474631883
-0.0003155297474631883
-0.0003100183108262768
-0.0002989954375524536
-0.0002852168459601746
-0.00027694969100480727
-0.00027419397268635144
-0.0002686825360494398
-0.00025765966277561676
-0.00023561391622797047
-0.0002218353246356915
-0.00021632388799877996
-0.0002080567330434125
-0.00016396523994811996
-0.0001391637750820179
-0.00012538518348973897
-0.0001171180285343716
-9.78280003051811e-05
-7.57822537575348e-05
-5.3736507209888505e-05
-4.2713633936065354e-05
-3.720219729915378e-05
-2.6179324025330647e-05
-1.240073243305171e-05
1.3778591592272275e-06
6.8892957961388014e-06
4.133577477683014e-06
4.133577477683014e-06
9.64501411459459e-06
9.64501411459459e-06
-1.377859159228559e-06
-1.7912169069963278e-05
-3.720219729915378e-05
-4.5469352254521147e-05
-5.098078889143272e-05
-6.475938048371164e-05
-8.680512703135793e-05
-0.00011436231021591582
-0.00013089662012665053
-0.00014467521171892948
-0.00016672095826657574
-0.00019703385976958942
-0.00022459104295414727
-0.00023836963454642628
-0.00024388107118333775
-0.0002521482261387052
-0.00027143825436789566
-0.0002852168459601746
-0.00029072828259708617
-0.0002852168459601746
-0.0002852168459601746
-0.00029072828259708617
-0.00030175115587090934
-0.00030726259250782084
-0.0003045068741893651
-0.00029348400091554195
-0.00029348400091554195
-0.0003045068741893651
-0.0003127740291447324
-0.00030726259250782084
-0.0002989954375524536
-0.0002989954375524536
-0.0003045068741893651
-0.0003127740291447324
-0.0003045068741893651
-0.0002962397192339978
-0.0002962397192339978
-0.00030175115587090934
-0.00030726259250782084
-0.0003045068741893651
-0.00029348400091554195
-0.00028797256427863044
-0.0002962397192339978
-0.00030175115587090934
-0.0002962397192339978
-0.0002824611276417188
-0.0002686825360494398
-0.00026592681773098404
-0.0002686825360494398
-0.0002604153810940725
-0.0002466367895017936
-0.00023010247959105888
-0.0002190796063172357
-0.00020530101472495681
-0.00018876670481422206
-0.0001777438315403989
-0.00018049954985885472
-0.00019152242313267784
-0.00020254529640650095
-0.0002108124513618684
-0.0002218353246356915
-0.00024388107118333775
-0.00027419397268635144
-0.0002989954375524536
-0.0003045068741893651
-0.00030175115587090934
-0.0003045068741893651
-0.0003127740291447324
-0.00032379690241855563
-0.00032655262073701135
-0.0003155297474631883
-0.00030726259250782084
-0.0003127740291447324
-0.00032379690241855563
-0.00032379690241855563
-0.0003127740291447324
-0.00030726259250782084
-0.00030175115587090934
-0.0002989954375524536
-0.00022734676127260308
6.8892957961388014e-06
0.00042575848020141833
0.00092178777752346
0.0013048326237888143
0.0013957713282978553
0.001103665186541542
0.0005663001144426635
2.8935042343785094e-05
-0.00032655262073701135
-0.00040646845197222917
-0.00037339983215075977
-0.0003651326771953924
-0.00037891126878767127
-0.0003899341420614945
-0.0003982012970168618
-0.0003954455786984061
-0.0003844227054245829
-0.0003816669871061273
-0.0003871784237430386
-0.00039268986037995033
-0.0003871784237430386
-0.00037339983215075977
-0.0003651326771953924
-0.00036788839551384826
-0.00037339983215075977
-0.00037339983215075977
-0.00036237695887693665
-0.0003458426489662019
-0.0003458426489662019
-0.0003513540856031135
-0.0003485983672846577
-0.0003348197756923787
-0.00031828546578164407
-0.0003100183108262768
-0.0003100183108262768
-0.0002962397192339978
-0.00027970540932326305
-0.00027143825436789566
-0.0002686825360494398
-0.00026592681773098404
-0.0002466367895017936
-0.00022734676127260308
-0.0002108124513618684
-0.00020254529640650095
-0.00019427814145113364
-0.00017498811322194308
-0.000150186648355841
-0.00012538518348973897
-0.00011160659189746003
-0.00010058371862363688
-8.680512703135793e-05
-6.475938048371164e-05
-4.2713633936065354e-05
-3.169076066224221e-05
-2.8935042343786426e-05
-2.066788738841907e-05
-4.133577477684346e-06
9.64501411459459e-06
6.8892957961388014e-06
1.3778591592272275e-06
-4.133577477684346e-06
-4.133577477684346e-06
-1.377859159228559e-06
-1.240073243305171e-05
-2.6179324025330647e-05
-4.2713633936065354e-05
-5.098078889143272e-05
-5.9247943846800084e-05
-7.302653543907902e-05
-0.00010058371862363688
-0.00013089662012665053
-0.00014743093003738526
-0.0001584538033112084
-0.0001777438315403989
-0.00020254529640650095
-0.00023010247959105888
-0.00024388107118333775
-0.00024939250782024937
-0.0002549039444571609
-0.00026592681773098404
-0.00027970540932326305
-0.0002852168459601746
-0.0002852168459601746
-0.0002824611276417188
-0.00029072828259708617
-0.00030175115587090934
-0.00030175115587090934
-0.00029348400091554195
-0.00028797256427863044
-0.00029348400091554195
-0.0003045068741893651
-0.0003100183108262768
-0.0003045068741893651
-0.0002962397192339978
-0.00029072828259708617
-0.00030175115587090934
-0.0003100183108262768
-0.00030726259250782084
-0.0002962397192339978
-0.0003045068741893651
-0.0003100183108262768
-0.00030175115587090934
-0.00029072828259708617
-0.00029072828259708617
-0.0002962397192339978
-0.0003045068741893651
-0.0002989954375524536
-0.0002824611276417188
-0.0002686825360494398
-0.0002686825360494398
-0.00027143825436789566
-0.00026592681773098404
-0.00025765966277561676
-0.00024939250782024937
-0.00024112535286488197
-0.00022734676127260308
-0.00021356816968032413
-0.00019703385976958942
-0.0001777438315403989
-0.0001777438315403989
-0.00018601098649576628
-0.00019703385976958942
-0.00020530101472495681
-0.0002080567330434125
-0.00022734676127260308
-0.0002604153810940725
-0.00027970540932326305
-0.00029348400091554195
-0.00029348400091554195
-0.0002962397192339978
-0.00030726259250782084
-0.00031828546578164407
-0.00031828546578164407
-0.00030726259250782084
-0.00030175115587090934
-0.00030726259250782084
-0.0003155297474631883
-0.0003155297474631883
-0.00030726259250782084
-0.0003045068741893651
-0.0002989954375524536
-0.0003045068741893651
-0.0002824611276417188
-0.0001336523384451063
0.00019978957808804387
0.0006820402838178067
0.0011642909895475692
0.0014426185397116034
0.0013654584267948416
0.0009438335240711064
0.00037615555046921414
-0.00011436231021591582
-0.0003568655222400251
-0.00036237695887693665
-0.0003403312123292903
-0.00035410980392156926
-0.000370644113832304
-0.0003816669871061273
-0.0003816669871061273
-0.00037615555046921565
-0.000370644113832304
-0.00037615555046921565
-0.0003816669871061273
-0.0003816669871061273
-0.00036237695887693665
-0.0003651326771953924
-0.00036788839551384826
-0.0003651326771953924
-0.00035410980392156926
-0.0003430869306477461
-0.0003430869306477461
-0.0003485983672846577
-0.0003430869306477461
-0.0003320640573739229
-0.00031828546578164407
-0.0003100183108262768
-0.0003100183108262768
-0.0003100183108262768
-0.0002989954375524536
-0.00027970540932326305
-0.00026592681773098404
-0.0002686825360494398
-0.00026592681773098404
-0.00024939250782024937
-0.00022734676127260308
-0.00021356816968032413
-0.00020530101472495681
-0.0001997895780880452
-0.00018325526817731047
-0.00015569808499275262
-0.00013089662012665053
-0.0001171180285343716
-0.00010333943694209268
-8.404940871290214e-05
-5.9247943846800084e-05
-3.720219729915378e-05
-2.6179324025330647e-05
-2.066788738841907e-05
-9.64501411459592e-06
4.133577477683014e-06
1.7912169069961946e-05
2.3423605706873515e-05
1.7912169069961946e-05
1.5156450751506162e-05
1.7912169069961946e-05
2.066788738841773e-05
1.5156450751506162e-05
1.3778591592272275e-06
-1.5156450751507488e-05
-2.8935042343786426e-05
-3.4446478980697995e-05
-5.098078889143272e-05
-7.302653543907902e-05
-0.00010058371862363688
-0.0001198737468528274
-0.0001336523384451063
-0.000150186648355841
-0.00017498811322194308
-0.0001997895780880452
-0.00021632388799877996
-0.00022459104295414727
-0.00023285819790951464
-0.00024388107118333775
-0.0002604153810940725
-0.00027143825436789566
-0.00027143825436789566
-0.0002686825360494398
-0.00027143825436789566
-0.00027970540932326305
-0.00028797256427863044
-0.00027694969100480727
-0.00027970540932326305
-0.00028797256427863044
-0.00029072828259708617
-0.0002852168459601746
-0.00027970540932326305
-0.00027970540932326305
-0.00028797256427863044
-0.00029072828259708617
-0.00029348400091554195
-0.0002852168459601746
-0.00027970540932326305
-0.00027970540932326305
-0.00028797256427863044
-0.00028797256427863044
-0.00027970540932326305
-0.00027694969100480727
-0.0002824611276417188
-0.00029072828259708617
-0.0002852168459601746
-0.00027143825436789566
-0.0002549039444571609
-0.0002521482261387052
-0.0002549039444571609
-0.0002521482261387052
-0.0002466367895017936
-0.00023836963454642628
-0.00021632388799877996
-0.00020530101472495681
-0.00019703385976958942
-0.00018325526817731047
-0.00016672095826657574
-0.00016396523994811996
-0.00017498811322194308
-0.00018876670481422206
-0.00019703385976958942
-0.00020254529640650095
-0.0002218353246356915
-0.0002521482261387052
-0.00027970540932326305
-0.00029072828259708617
-0.00028797256427863044
-0.00028797256427863044
-0.0002989954375524536
-0.0003100183108262768
-0.0003127740291447324
-0.0003045068741893651
-0.0002962397192339978
-0.00030175115587090934
-0.0003100183108262768
-0.0003100183108262768
-0.0003045068741893651
-0.0002962397192339978
-0.0002962397192339978
-0.0003045068741893651
-0.00027143825436789566
-8.404940871290214e-05
0.0002934840009155406
0.0008032918898298613
0.0012607411306935217
0.0014729314412146172
0.0013103440604257258
0.0008391162279697863
0.00027143825436789435
-0.00018601098649576628
-0.0003568655222400251
-0.0003430869306477461
-0.0003568655222400251
-0.00037339983215075977
-0.0003871784237430386
-0.0003871784237430386
-0.00037891126878767127
-0.00037615555046921565
-0.00037615555046921565
-0.0003816669871061273
-0.0003816669871061273
-0.000370644113832304
-0.0003596212405584808
-0.0003596212405584808
-0.00036237695887693665
-0.00036237695887693665
-0.00035410980392156926
-0.0003430869306477461
-0.0003375754940108345
-0.0003403312123292903
-0.0003403312123292903
-0.00032655262073701135
-0.0003100183108262768
-0.0003045068741893651
-0.00030726259250782084
-0.00030726259250782084
-0.00029348400091554195
-0.00027419397268635144
-0.0002631710994125282
-0.0002631710994125282
-0.0002604153810940725
-0.00024939250782024937
-0.00023010247959105888
-0.00021356816968032413
-0.0001997895780880452
-0.00018876670481422206
-0.00016947667658503157
-0.00014743093003738526
-0.0001198737468528274
-0.00010609515526054846
-9.507228198672531e-05
-7.85379720759906e-05
-5.6492225528344285e-05
-3.4446478980697995e-05
-2.066788738841907e-05
-1.7912169069963278e-05
-9.64501411459592e-06
4.133577477683014e-06
2.066788738841773e-05
2.6179324025329308e-05
2.066788738841773e-05
9.64501411459459e-06
9.64501411459459e-06
1.7912169069961946e-05
6.8892957961388014e-06
-1.240073243305171e-05
-3.4446478980697995e-05
-4.5469352254521147e-05
-4.8225070572976926e-05
-6.200366216525588e-05
-8.680512703135793e-05
-0.00011436231021591582
-0.0001336523384451063
-0.00014743093003738526
-0.00016396523994811996
-0.00021356816968032413
-0.00023010247959105888
-0.00023285819790951464
-0.00023836963454642628
-0.00024939250782024937
-0.00026592681773098404
-0.00027694969100480727
-0.00027419397268635144
-0.00027143825436789566
-0.00027419397268635144
-0.00028797256427863044
-0.00029348400091554195
-0.00028797256427863044
-0.0002852168459601746
-0.0002852168459601746
-0.00029072828259708617
-0.0002962397192339978
-0.00029348400091554195
-0.00028797256427863044
-0.00028797256427863044
-0.0002962397192339978
-0.00030175115587090934
-0.00030175115587090934
-0.00029072828259708617
-0.0002852168459601746
-0.00029072828259708617
-0.0002989954375524536
-0.0002989954375524536
-0.00029072828259708617
-0.00028797256427863044
-0.0002852168459601746
-0.00029348400091554195
-0.0002962397192339978
-0.0002852168459601746
-0.00027143825436789566
-0.0002686825360494398
-0.00027143825436789566
-0.0002686825360494398
-0.0002549039444571609
-0.0002466367895017936
-0.00023836963454642628
-0.00023010247959105888
-0.00021632388799877996
-0.00019703385976958942
-0.0001777438315403989
-0.00017223239490348733
-0.00018049954985885472
-0.00019152242313267784
-0.00019703385976958942
-0.00020254529640650095
-0.00021356816968032413
-0.00024388107118333775
-0.00027419397268635144
-0.00029072828259708617
-0.0002962397192339978
-0.0002989954375524536
-0.00030175115587090934
-0.0003155297474631883
-0.00031828546578164407
-0.0003100183108262768
-0.0003045068741893651
-0.0003100183108262768
-0.0003155297474631883
-0.0003127740291447324
-0.0003045068741893651
-0.0002989954375524536
-0.0003045068741893651
-0.0003100183108262768
-0.00025765966277561676
-4.8225070572976926e-05
0.00034584264896620056
0.0008391162279697863
0.0012662525673304335
0.0014288399481193247
0.0012194053559166852
0.000717864621957732
0.00016396523994811866
-0.00024388107118333775
-0.0003816669871061273
-0.00035410980392156926
-0.0003485983672846577
-0.000370644113832304
-0.0003871784237430386
-0.0003871784237430386
-0.00037891126878767127
-0.00037615555046921565
-0.00037891126878767127
-0.0003844227054245829
-0.0003816669871061273
-0.000370644113832304
-0.00036237695887693665
-0.00036237695887693665
-0.00036788839551384826
-0.000370644113832304
-0.0003596212405584808
-0.0003485983672846577
-0.0003485983672846577
-0.0003513540856031135
-0.0003513540856031135
-0.0003403312123292903
-0.00032379690241855563
-0.00031828546578164407
-0.0003210411841000998
-0.00031828546578164407
-0.0003045068741893651
-0.00029072828259708617
-0.0002824611276417188
-0.00027970540932326305
-0.00027694969100480727
-0.00026592681773098404
-0.0002466367895017936
-0.00023285819790951464
-0.00022459104295414727
-0.00021632388799877996
-0.00020530101472495681
-0.00018325526817731047
-0.0001584538033112084
-0.00014467521171892948
-0.0001336523384451063
-0.0001198737468528274
-9.507228198672531e-05
-7.302653543907902e-05
-5.9247943846800084e-05
-5.3736507209888505e-05
-4.5469352254521147e-05
-3.169076066224221e-05
-1.5156450751507488e-05
-6.889295796140132e-06
-9.64501411459592e-06
-1.5156450751507488e-05
-1.5156450751507488e-05
-9.64501411459592e-06
-2.6179324025330647e-05
-4.8225070572976926e-05
-5.9247943846800084e-05
-6.475938048371164e-05
-7.57822537575348e-05
-9.507228198672531e-05
-0.0001198737468528274
-0.0001391637750820179
-0.00015294236667429682
-0.00016947667658503157
-0.00019152242313267784
-0.00021632388799877996
-0.00023285819790951464
-0.00024388107118333775
-0.0002521482261387052
-0.00026592681773098404
-0.0002824611276417188
-0.00029072828259708617
-0.00029072828259708617
-0.0002824611276417188
-0.0002852168459601746
-0.0002989954375524536
-0.00030726259250782084
-0.0003045068741893651
-0.00030175115587090934
-0.00030175115587090934
-0.0003045068741893651
-0.0003127740291447324
-0.0003127740291447324
-0.00030726259250782084
-0.0003045068741893651
-0.0003127740291447324
-0.0003210411841000998
-0.0003155297474631883
-0.0003100183108262768
-0.0003045068741893651
-0.0003100183108262768
-0.0003210411841000998
-0.00032379690241855563
-0.0003100183108262768
-0.0003045068741893651
-0.00030726259250782084
-0.0003155297474631883
-0.0003100183108262768
-0.0002962397192339978
-0.00028797256427863044
-0.00027970540932326305
-0.00027694969100480727
-0.00027694969100480727
-0.00027143825436789566
-0.0002604153810940725
-0.00024388107118333775
-0.00022734676127260308
-0.0002218353246356915
-0.0002108124513618684
-0.00019427814145113364
-0.00019152242313267784
-0.00020254529640650095
-0.00021632388799877996
-0.00022459104295414727
-0.00022734676127260308
-0.00024939250782024937
-0.00027970540932326305
-0.00030175115587090934
-0.0003100183108262768
-0.0003100183108262768
-0.00031828546578164407
-0.0003293083390554673
-0.0003293083390554673
-0.00032379690241855563
-0.00031828546578164407
-0.00032379690241855563
-0.0003320640573739229
-0.0003348197756923787
-0.0003320640573739229
-0.00032379690241855563
-0.0003210411841000998
-0.0003210411841000998
-0.0003045068741893651
-0.00018049954985885472
0.00010609515526054714
0.0005166971847104594
0.0009328106507972832
0.0011835810177767598
0.0011394895246814672
0.0007840018616006707
0.00031001831082627527
-0.0001171180285343716
-0.00035410980392156926
-0.00037339983215075977
-0.00036237695887693665
-0.00037339983215075977
-0.0003871784237430386
-0.0003954455786984061
-0.0003954455786984061
-0.0003899341420614945
-0.0003844227054245829
-0.0003871784237430386
-0.0003954455786984061
-0.00039268986037995033
-0.0003844227054245829
-0.00037615555046921565
-0.00037615555046921565
-0.0003816669871061273
-0.0003844227054245829
-0.00037615555046921565
-0.00036237695887693665
-0.00035410980392156926
-0.00036237695887693665
-0.0003651326771953924
-0.00035410980392156926
-0.0003375754940108345
-0.0003320640573739229
-0.0003348197756923787
-0.0003320640573739229
-0.00032379690241855563
-0.0003045068741893651
-0.0002962397192339978
-0.00029072828259708617
-0.00029072828259708617
-0.0002852168459601746
-0.0002686825360494398
-0.0002521482261387052
-0.00024112535286488197
-0.00023836963454642628
-0.00023010247959105888
-0.0002080567330434125
-0.00018601098649576628
-0.00017223239490348733
-0.00015569808499275262
-0.0001336523384451063
-0.00011436231021591582
-0.00010333943694209268
-0.00010333943694209268
-0.00010058371862363688
-8.956084534981374e-05
-7.302653543907902e-05
-6.751509880216745e-05
-7.027081712062322e-05
-7.57822537575348e-05
-7.302653543907902e-05
-7.027081712062322e-05
-7.302653543907902e-05
-8.956084534981374e-05
-0.00011160659189746003
-0.0001198737468528274
-0.0001226294651712832
-0.0001336523384451063
-0.00015294236667429682
-0.00018049954985885472
-0.00019703385976958942
-0.00020530101472495681
-0.00021632388799877996
-0.00023561391622797047
-0.0002549039444571609
-0.0002686825360494398
-0.00027419397268635144
-0.00027970540932326305
-0.00028797256427863044
-0.00030175115587090934
-0.0003127740291447324
-0.0003100183108262768
-0.00030726259250782084
-0.0003127740291447324
-0.0003210411841000998
-0.0003293083390554673
-0.00032655262073701135
-0.00031828546578164407
-0.0003100183108262768
-0.0003210411841000998
-0.0003320640573739229
-0.0003320640573739229
-0.0003210411841000998
-0.00031828546578164407
-0.0003210411841000998
-0.0003293083390554673
-0.0003293083390554673
-0.00032379690241855563
-0.00031828546578164407
-0.00032379690241855563
-0.0003320640573739229
-0.0003293083390554673
-0.0003210411841000998
-0.0003155297474631883
-0.0003210411841000998
-0.00032655262073701135
-0.00032379690241855563
-0.0003045068741893651
-0.00028797256427863044
-0.00027970540932326305
-0.00027970540932326305
-0.00027970540932326305
-0.00027694969100480727
-0.0002686825360494398
-0.0002521482261387052
-0.00022459104295414727
-0.00021356816968032413
-0.0001997895780880452
-0.00019703385976958942
-0.00020530101472495681
-0.0002218353246356915
-0.00022734676127260308
-0.00023010247959105888
-0.0002466367895017936
-0.00027970540932326305
-0.0003045068741893651
-0.0003127740291447324
-0.0003127740291447324
-0.0003100183108262768
-0.0003210411841000998
-0.0003320640573739229
-0.0003293083390554673
-0.00032655262073701135
-0.00031828546578164407
-0.00031828546578164407
-0.00032655262073701135
-0.0003320640573739229
-0.00032379690241855563
-0.0003155297474631883
-0.00031828546578164407
-0.00031828546578164407
-0.0003100183108262768
-0.00021356816968032413
3.444647898069667e-05
0.00042024704356450677
0.0008225819180590517
0.0010926423132677188
0.0010926423132677188
0.0007922690165560381
0.00034584264896620056
-7.027081712062322e-05
-0.0003293083390554673
-0.0003651326771953924
-0.0003458426489662019
-0.0003568655222400251
-0.00037339983215075977
-0.0003816669871061273
-0.0003844227054245829
-0.0003816669871061273
-0.00037339983215075977
-0.00037615555046921565
-0.0003844227054245829
-0.0003816669871061273
-0.00037339983215075977
-0.0003651326771953924
-0.0003651326771953924
-0.000370644113832304
-0.000370644113832304
-0.00036237695887693665
-0.0003513540856031135
-0.0003458426489662019
-0.0003458426489662019
-0.0003513540856031135
-0.0003458426489662019
-0.0003320640573739229
-0.00032379690241855563
-0.00032379690241855563
-0.0003210411841000998
-0.0003127740291447324
-0.00030175115587090934
-0.00028797256427863044
-0.00028797256427863044
-0.00027970540932326305
-0.0002631710994125282
-0.00024388107118333775
-0.00023561391622797047
-0.00023285819790951464
-0.0002190796063172357
-0.00019703385976958942
-0.00017223239490348733
-0.0001612095216296642
-0.00015294236667429682
-0.00014191949340047367
-0.0001226294651712832
-0.00010333943694209268
-8.956084534981374e-05
-8.680512703135793e-05
-8.129369039444639e-05
-6.475938048371164e-05
-4.8225070572976926e-05
-4.2713633936065354e-05
-4.5469352254521147e-05
-5.098078889143272e-05
-4.8225070572976926e-05
-3.995791561760957e-05
-4.2713633936065354e-05
-5.9247943846800084e-05
-7.85379720759906e-05
-8.680512703135793e-05
-9.231656366826955e-05
-9.78280003051811e-05
-0.0001171180285343716
-0.00014191949340047367
-0.0001584538033112084
-0.00016947667658503157
-0.00018049954985885472
-0.00020254529640650095
-0.0002218353246356915
-0.00023561391622797047
-0.00024112535286488197
-0.00024388107118333775
-0.0002549039444571609
-0.0002686825360494398
-0.00027970540932326305
-0.0002824611276417188
-0.00027970540932326305
-0.00027970540932326305
-0.00029072828259708617
-0.0002962397192339978
-0.00029348400091554195
-0.00028797256427863044
-0.00028797256427863044
-0.00029072828259708617
-0.0002962397192339978
-0.0002962397192339978
-0.00028797256427863044
-0.0002852168459601746
-0.00029348400091554195
-0.00030175115587090934
-0.0002989954375524536
-0.00029348400091554195
-0.00028797256427863044
-0.00028797256427863044
-0.0002989954375524536
-0.00030175115587090934
-0.0002852168459601746
-0.0002852168459601746
-0.00029072828259708617
-0.00029348400091554195
-0.00028797256427863044
-0.00027970540932326305
-0.00027143825436789566
-0.00027143825436789566
-0.0002686825360494398
-0.0002604153810940725
-0.00024388107118333775
-0.00023836963454642628
-0.00024388107118333775
-0.00024388107118333775
-0.0002218353246356915
-0.00019152242313267784
-0.00016947667658503157
-0.00016947667658503157
-0.00017498811322194308
-0.00017498811322194308
-0.00016947667658503157
-0.00017498811322194308
-0.00019427814145113364
-0.0002218353246356915
-0.0002466367895017936
-0.00025765966277561676
-0.00026592681773098404
-0.00027970540932326305
-0.00029348400091554195
-0.0002989954375524536
-0.00029348400091554195
-0.0002852168459601746
-0.00029072828259708617
-0.0002989954375524536
-0.00030175115587090934
-0.0002989954375524536
-0.00029072828259708617
-0.00029072828259708617
-0.00030175115587090934
-0.00030726259250782084
-0.00029348400091554195
-0.0002686825360494398
-0.00017498811322194308
6.751509880216611e-05
0.0004781171282520784
0.0009438335240711064
0.0012882983138780798
0.0013130997787441814
0.0009631235523002968
0.00041197988860913943
-8.680512703135793e-05
-0.0003513540856031135
-0.00037339983215075977
-0.0003430869306477461
-0.00035410980392156926
-0.0003651326771953924
-0.00036237695887693665
-0.0003568655222400251
-0.0003596212405584808
-0.0003651326771953924
-0.000370644113832304
-0.00036237695887693665
-0.0003513540856031135
-0.0003485983672846577
-0.00035410980392156926
-0.0003485983672846577
-0.0003375754940108345
-0.0003320640573739229
-0.0003348197756923787
-0.0003348197756923787
-0.0003293083390554673
-0.0003155297474631883
-0.0003100183108262768
-0.0003100183108262768
-0.0003100183108262768
-0.0002989954375524536
-0.0002852168459601746
-0.00027143825436789566
-0.00027143825436789566
-0.00027419397268635144
-0.00026592681773098404
-0.00024939250782024937
-0.00023285819790951464
-0.00022459104295414727
-0.0002218353246356915
-0.0002108124513618684
-0.00018876670481422206
-0.00016672095826657574
-0.00015294236667429682
-0.00014191949340047367
-0.0001336523384451063
-0.00010885087357900426
-8.129369039444639e-05
-6.200366216525588e-05
-5.3736507209888505e-05
-4.5469352254521147e-05
-2.8935042343786426e-05
-9.64501411459592e-06
1.3778591592272275e-06
1.3778591592272275e-06
4.133577477683014e-06
1.5156450751506162e-05
2.6179324025329308e-05
2.8935042343785094e-05
1.7912169069961946e-05
4.133577477683014e-06
-4.133577477684346e-06
-6.889295796140132e-06
-1.240073243305171e-05
-2.8935042343786426e-05
-4.8225070572976926e-05
-7.027081712062322e-05
-8.404940871290214e-05
-9.78280003051811e-05
-0.0001198737468528274
-0.000150186648355841
-0.00017498811322194308
-0.00018876670481422206
-0.0001997895780880452
-0.00021632388799877996
-0.00023836963454642628
-0.0002549039444571609
-0.00025765966277561676
-0.0002549039444571609
-0.0002549039444571609
-0.0002686825360494398
-0.0002824611276417188
-0.0002824611276417188
-0.00027694969100480727
-0.00027694969100480727
-0.00027694969100480727
-0.00028797256427863044
-0.00027694969100480727
-0.00027419397268635144
-0.00027970540932326305
-0.00029072828259708617
-0.00029072828259708617
-0.00027970540932326305
-0.00027419397268635144
-0.00027970540932326305
-0.00029072828259708617
-0.00029072828259708617
-0.0002824611276417188
-0.00027419397268635144
-0.00027419397268635144
-0.00027970540932326305
-0.0002824611276417188
-0.00027970540932326305
-0.0002686825360494398
-0.0002631710994125282
-0.0002631710994125282
-0.0002631710994125282
-0.0002521482261387052
-0.00024112535286488197
-0.00023285819790951464
-0.00023561391622797047
-0.00023836963454642628
-0.0002190796063172357
-0.00019152242313267784
-0.00017223239490348733
-0.00016672095826657574
-0.00016947667658503157
-0.00016672095826657574
-0.00016396523994811996
-0.00016947667658503157
-0.00018601098649576628
-0.0002108124513618684
-0.00023836963454642628
-0.00024939250782024937
-0.0002604153810940725
-0.00027419397268635144
-0.00028797256427863044
-0.0002962397192339978
-0.00029348400091554195
-0.0002824611276417188
-0.0002824611276417188
-0.00029072828259708617
-0.0002962397192339978
-0.00029348400091554195
-0.00027970540932326305
-0.00027694969100480727
-0.0002852168459601746
-0.00029072828259708617
-0.0002824611276417188
-0.0002604153810940725
-0.00018325526817731047
3.444647898069667e-05
0.0004340256351567857
0.0009272992141603715
0.0013268783703364606
0.0014178170748455018
0.001103665186541542
0.0005442543678950173
4.133577477683014e-06
-0.00031828546578164407
-0.00037615555046921565
-0.0003403312123292903
-0.0003568655222400251
-0.00035410980392156926
-0.0003430869306477461
-0.0003458426489662019
-0.0003568655222400251
-0.0003596212405584808
-0.0003485983672846577
-0.0003403312123292903
-0.0003348197756923787
-0.0003375754940108345
-0.0003403312123292903
-0.0003348197756923787
-0.0003210411841000998
-0.0003155297474631883
-0.00031828546578164407
-0.0003155297474631883
-0.0003127740291447324
-0.0002989954375524536
-0.00029072828259708617
-0.00029348400091554195
-0.0002962397192339978
-0.00028797256427863044
-0.00027143825436789566
-0.0002604153810940725
-0.0002549039444571609
-0.00025765966277561676
-0.0002521482261387052
-0.00023561391622797047
-0.00021632388799877996
-0.0002080567330434125
-0.00020530101472495681
-0.00019703385976958942
-0.00017498811322194308
-0.00015294236667429682
-0.0001336523384451063
-0.0001226294651712832
-0.00011160659189746003
-8.956084534981374e-05
-6.200366216525588e-05
-4.2713633936065354e-05
-3.169076066224221e-05
-2.342360570687485e-05
-9.64501411459592e-06
9.64501411459459e-06
2.3423605706873515e-05
2.6179324025329308e-05
2.6179324025329308e-05
3.169076066224089e-05
4.546935225451981e-05
5.098078889143139e-05
4.546935225451981e-05
3.169076066224089e-05
2.066788738841773e-05
1.5156450751506162e-05
9.64501411459459e-06
-4.133577477684346e-06
-2.8935042343786426e-05
-5.098078889143272e-05
-6.200366216525588e-05
-7.57822537575348e-05
-0.00010058371862363688
-0.00013089662012665053
-0.00015569808499275262
-0.00017223239490348733
-0.0001997895780880452
-0.00021632388799877996
-0.00023561391622797047
-0.00024388107118333775
-0.0002466367895017936
-0.00024939250782024937
-0.00025765966277561676
-0.0002686825360494398
-0.00026592681773098404
-0.0002631710994125282
-0.0002631710994125282
-0.0002686825360494398
-0.00027419397268635144
-0.00027419397268635144
-0.0002686825360494398
-0.0002631710994125282
-0.0002686825360494398
-0.00027970540932326305
-0.00027694969100480727
-0.0002686825360494398
-0.0002631710994125282
-0.00026592681773098404
-0.00027419397268635144
-0.00027694969100480727
-0.00027143825436789566
-0.0002604153810940725
-0.0002631710994125282
-0.00027143825436789566
-0.00027419397268635144
-0.00027143825436789566
-0.0002631710994125282
-0.00025765966277561676
-0.00025765966277561676
-0.0002549039444571609
-0.00024939250782024937
-0.00023561391622797047
-0.00022734676127260308
-0.00023285819790951464
-0.00023561391622797047
-0.0002190796063172357
-0.00018876670481422206
-0.00016947667658503157
-0.0001612095216296642
-0.0001584538033112084
-0.0001584538033112084
-0.00015294236667429682
-0.00015569808499275262
-0.00017223239490348733
-0.00019703385976958942
-0.0002218353246356915
-0.00024112535286488197
-0.00024939250782024937
-0.0002631710994125282
-0.00027694969100480727
-0.0002852168459601746
-0.0002852168459601746
-0.00027419397268635144
-0.00027419397268635144
-0.0002852168459601746
-0.00029072828259708617
-0.00028797256427863044
-0.00027694969100480727
-0.00027419397268635144
-0.0002824611276417188
-0.00029072828259708617
-0.0002686825360494398
-0.00023010247959105888
-7.302653543907902e-05
0.00027143825436789435
0.0007647118333714802
0.0012331839475089635
0.0014619085679407943
0.0013048326237888143
0.00081707048142214
0.0002493925078202481
-0.00018601098649576628
-0.0003458426489662019
-0.0003320640573739229
-0.0003348197756923787
-0.0003568655222400251
-0.0003596212405584808
-0.00035410980392156926
-0.0003513540856031135
-0.0003596212405584808
-0.0003651326771953924
-0.0003596212405584808
-0.0003513540856031135
-0.0003485983672846577
-0.0003485983672846577
-0.0003513540856031135
-0.0003485983672846577
-0.0003403312123292903
-0.0003320640573739229
-0.0003320640573739229
-0.0003348197756923787
-0.0003320640573739229
-0.00031828546578164407
-0.00030726259250782084
-0.00030726259250782084
-0.0003155297474631883
-0.00030726259250782084
-0.00028797256427863044
-0.00027419397268635144
-0.0002686825360494398
-0.0002686825360494398
-0.0002631710994125282
-0.00024939250782024937
-0.00023561391622797047
-0.00022734676127260308
-0.0002218353246356915
-0.00021356816968032413
-0.00019152242313267784
-0.00016672095826657574
-0.000150186648355841
-0.00014191949340047367
-0.00012814090180819475
-0.00010333943694209268
-7.85379720759906e-05
-5.6492225528344285e-05
-4.2713633936065354e-05
-3.4446478980697995e-05
-2.342360570687485e-05
1.3778591592272275e-06
1.5156450751506162e-05
1.7912169069961946e-05
1.7912169069961946e-05
2.6179324025329308e-05
3.444647898069667e-05
3.720219729915245e-05
3.169076066224089e-05
1.7912169069961946e-05
6.8892957961388014e-06
4.133577477683014e-06
-1.240073243305171e-05
-3.4446478980697995e-05
-5.6492225528344285e-05
-6.751509880216745e-05
-7.85379720759906e-05
-9.78280003051811e-05
-0.00012814090180819475
-0.00015569808499275262
-0.00016947667658503157
-0.0001777438315403989
-0.00019152242313267784
-0.00021632388799877996
-0.00023285819790951464
-0.00023561391622797047
-0.00023285819790951464
-0.00023285819790951464
-0.0002466367895017936
-0.00025765966277561676
-0.00025765966277561676
-0.0002521482261387052
-0.00024939250782024937
-0.00025765966277561676
-0.00026592681773098404
-0.00026592681773098404
-0.00025765966277561676
-0.0002549039444571609
-0.0002549039444571609
-0.0002604153810940725
-0.00026592681773098404
-0.0002631710994125282
-0.0002604153810940725
-0.0002604153810940725
-0.0002686825360494398
-0.00027143825436789566
-0.0002631710994125282
-0.00025765966277561676
-0.00025765966277561676
-0.00026592681773098404
-0.00027143825436789566
-0.00026592681773098404
-0.00025765966277561676
-0.0002549039444571609
-0.0002549039444571609
-0.00025765966277561676
-0.00024939250782024937
-0.00023285819790951464
-0.0002218353246356915
-0.0002218353246356915
-0.00023010247959105888
-0.00022734676127260308
-0.0002080567330434125
-0.0001777438315403989
-0.00016396523994811996
-0.0001612095216296642
-0.00015569808499275262
-0.00014743093003738526
-0.00014191949340047367
-0.00015294236667429682
-0.00017498811322194308
-0.00019152242313267784
-0.0002080567330434125
-0.00022734676127260308
-0.00024939250782024937
-0.00027419397268635144
-0.00027419397268635144
-0.00027143825436789566
-0.00027143825436789566
-0.00027970540932326305
-0.0002852168459601746
-0.00027970540932326305
-0.00027143825436789566
-0.00027143825436789566
-0.00027694969100480727
-0.0002824611276417188
-0.00027970540932326305
-0.00026592681773098404
-0.0002604153810940725
-0.00023285819790951464
-7.302653543907902e-05
0.0002852168459601733
0.0007895132982375822
0.0012634968490119777
0.0014949771877622636
0.0013489241168841066
0.0008749405661097116
0.0003182854657816428
-0.00012814090180819475
-0.00032379690241855563
-0.00032379690241855563
-0.0003210411841000998
-0.0003375754940108345
-0.0003375754940108345
-0.0003403312123292903
-0.0003485983672846577
-0.0003596212405584808
-0.00035410980392156926
-0.0003458426489662019
-0.0003403312123292903
-0.0003430869306477461
-0.0003458426489662019
-0.0003403312123292903
-0.0003293083390554673
-0.0003210411841000998
-0.00032379690241855563
-0.0003293083390554673
-0.00032655262073701135
-0.0003127740291447324
-0.0002989954375524536
-0.0002962397192339978
-0.00030175115587090934
-0.0002989954375524536
-0.0002852168459601746
-0.0002686825360494398
-0.00026592681773098404
-0.00026592681773098404
-0.0002631710994125282
-0.0002521482261387052
-0.00023561391622797047
-0.00022459104295414727
-0.0002190796063172357
-0.00021356816968032413
-0.00019427814145113364
-0.00016947667658503157
-0.00015294236667429682
-0.00014743093003738526
-0.0001364080567635621
-0.00011160659189746003
-8.404940871290214e-05
-5.3736507209888505e-05
-4.2713633936065354e-05
-2.6179324025330647e-05
-6.889295796140132e-06
1.5156450751506162e-05
2.3423605706873515e-05
2.6179324025329308e-05
3.169076066224089e-05
4.271363393606403e-05
5.098078889143139e-05
4.546935225451981e-05
3.720219729915245e-05
3.169076066224089e-05
2.6179324025329308e-05
2.3423605706873515e-05
1.2400732433050376e-05
-9.64501411459592e-06
-3.169076066224221e-05
-4.2713633936065354e-05
-5.098078889143272e-05
-7.302653543907902e-05
-0.00010333943694209268
-0.00012814090180819475
-0.00014743093003738526
-0.0001584538033112084
-0.00017498811322194308
-0.00019703385976958942
-0.0002190796063172357
-0.00022734676127260308
-0.00023010247959105888
-0.00023285819790951464
-0.00024388107118333775
-0.0002549039444571609
-0.0002604153810940725
-0.0002604153810940725
-0.00025765966277561676
-0.0002631710994125282
-0.00027143825436789566
-0.00027694969100480727
-0.00026592681773098404
-0.00025765966277561676
-0.0002631710994125282
-0.00027419397268635144
-0.00027970540932326305
-0.0002686825360494398
-0.0002604153810940725
-0.0002631710994125282
-0.0002686825360494398
-0.00027694969100480727
-0.00027419397268635144
-0.00026592681773098404
-0.00026592681773098404
-0.00027143825436789566
-0.00027970540932326305
-0.00027694969100480727
-0.0002686825360494398
-0.0002686825360494398
-0.0002686825360494398
-0.0002686825360494398
-0.00025765966277561676
-0.00023836963454642628
-0.00023010247959105888
-0.00023285819790951464
-0.00023836963454642628
-0.00023836963454642628
-0.00019703385976958942
-0.0001777438315403989
-0.00017223239490348733
-0.00016672095826657574
-0.0001584538033112084
-0.00014743093003738526
-0.00015294236667429682
-0.00016947667658503157
-0.00018876670481422206
-0.00020254529640650095
-0.0002190796063172357
-0.00024112535286488197
-0.00026592681773098404
-0.00027970540932326305
-0.00027694969100480727
-0.00027143825436789566
-0.00027694969100480727
-0.0002852168459601746
-0.00029348400091554195
-0.00029348400091554195
-0.0002824611276417188
-0.00027970540932326305
-0.0002824611276417188
-0.00029072828259708617
-0.00028797256427863044
-0.00027694969100480727
-0.0002686825360494398
-0.00026592681773098404
-0.00019152242313267784
6.475938048371032e-05
0.0005139414663920035
0.0010347722285801472
0.001423328511482413
0.0014784428778515288
0.0011560238345922017
0.0006159030441748677
8.129369039444505e-05
-0.0002631710994125282
-0.0003403312123292903
-0.00032655262073701135
-0.0003348197756923787
-0.0003430869306477461
-0.0003513540856031135
-0.00036237695887693665
-0.000370644113832304
-0.0003651326771953924
-0.0003513540856031135
-0.0003485983672846577
-0.0003568655222400251
-0.00036237695887693665
-0.00035410980392156926
-0.0003430869306477461
-0.0003375754940108345
-0.0003375754940108345
-0.0003430869306477461
-0.0003403312123292903
-0.0003293083390554673
-0.0003155297474631883
-0.0003155297474631883
-0.00031828546578164407
-0.0003155297474631883
-0.00030175115587090934
-0.00028797256427863044
-0.00027970540932326305
-0.00027970540932326305
-0.00027419397268635144
-0.00024112535286488197
-0.00023285819790951464
-0.00023285819790951464
-0.00023010247959105888
-0.0002108124513618684
-0.00018876670481422206
-0.00016947667658503157
-0.0001584538033112084
-0.000150186648355841
-0.0001336523384451063
-0.00010333943694209268
-7.57822537575348e-05
-6.751509880216745e-05
-5.9247943846800084e-05
-3.995791561760957e-05
-1.7912169069963278e-05
1.3778591592272275e-06
1.2400732433050376e-05
1.5156450751506162e-05
1.7912169069961946e-05
2.8935042343785094e-05
3.720219729915245e-05
3.720219729915245e-05
2.8935042343785094e-05
2.066788738841773e-05
2.066788738841773e-05
1.7912169069961946e-05
6.8892957961388014e-06
-1.5156450751507488e-05
-3.169076066224221e-05
-4.2713633936065354e-05
-5.3736507209888505e-05
-7.302653543907902e-05
-0.00010058371862363688
-0.00013089662012665053
-0.000150186648355841
-0.0001584538033112084
-0.0001777438315403989
-0.0001997895780880452
-0.0002218353246356915
-0.00023285819790951464
-0.00023561391622797047
-0.00023836963454642628
-0.0002521482261387052
-0.0002686825360494398
-0.00027419397268635144
-0.00027143825436789566
-0.0002686825360494398
-0.00027694969100480727
-0.0002852168459601746
-0.00029072828259708617
-0.0002852168459601746
-0.00027694969100480727
-0.00027970540932326305
-0.00028797256427863044
-0.00029348400091554195
-0.00028797256427863044
-0.00027970540932326305
-0.00027694969100480727
-0.0002852168459601746
-0.00029348400091554195
-0.00029348400091554195
-0.0002852168459601746
-0.00027970540932326305
-0.00028797256427863044
-0.00029072828259708617
-0.0002824611276417188
-0.00027970540932326305
-0.0002852168459601746
-0.00028797256427863044
-0.0002824611276417188
-0.00026592681773098404
-0.0002521482261387052
-0.00024939250782024937
-0.0002521482261387052
-0.00024939250782024937
-0.00024388107118333775
-0.00023010247959105888
-0.00021356816968032413
-0.0001997895780880452
-0.00019152242313267784
-0.0001777438315403989
-0.00016396523994811996
-0.00016947667658503157
-0.00018601098649576628
-0.0001997895780880452
-0.0002080567330434125
-0.00021632388799877996
-0.00023561391622797047
-0.00026592681773098404
-0.0002852168459601746
-0.00029072828259708617
-0.00028797256427863044
-0.00029072828259708617
-0.00030175115587090934
-0.0003100183108262768
-0.00030726259250782084
-0.0002989954375524536
-0.0002962397192339978
-0.0002989954375524536
-0.00030726259250782084
-0.0003100183108262768
-0.00030726259250782084
-0.00030175115587090934
-0.0002962397192339978
-0.0002989954375524536
-0.0002108124513618684
5.098078889143139e-05
0.0004781171282520784
0.000949344960708018
0.0012800311589227123
0.0013158554970626377
0.0009961921721217662
0.00048362856488898997
-6.889295796140132e-06
-0.00031828546578164407
-0.00037339983215075977
-0.0003458426489662019
-0.0003485983672846577
-0.0003596212405584808
-0.000370644113832304
-0.00037615555046921565
-0.000370644113832304
-0.00036237695887693665
-0.0003596212405584808
-0.0003651326771953924
-0.00037615555046921565
-0.000370644113832304
-0.0003568655222400251
-0.0003513540856031135
-0.0003596212405584808
-0.0003596212405584808
-0.0003513540856031135
-0.0003403312123292903
-0.0003403312123292903
-0.0003430869306477461
-0.0003430869306477461
-0.0003293083390554673
-0.0003155297474631883
-0.00030726259250782084
-0.00030726259250782084
-0.0003045068741893651
-0.0002962397192339978
-0.00027970540932326305
-0.00027143825436789566
-0.00027143825436789566
-0.00027143825436789566
-0.0002549039444571609
-0.00023836963454642628
-0.00022459104295414727
-0.00021632388799877996
-0.00020530101472495681
-0.00018601098649576628
-0.00016396523994811996
-0.00014467521171892948
-0.0001336523384451063
-0.00012538518348973897
-0.00010885087357900426
-8.404940871290214e-05
-6.475938048371164e-05
-5.6492225528344285e-05
-5.3736507209888505e-05
-5.098078889143272e-05
-3.720219729915378e-05
-2.342360570687485e-05
-2.066788738841907e-05
-2.6179324025330647e-05
-2.8935042343786426e-05
-2.8935042343786426e-05
-2.6179324025330647e-05
-3.720219729915378e-05
-5.9247943846800084e-05
-7.57822537575348e-05
-8.404940871290214e-05
-8.680512703135793e-05
-0.00010058371862363688
-0.00012538518348973897
-0.00015294236667429682
-0.00016947667658503157
-0.00018049954985885472
-0.00019427814145113364
-0.0002218353246356915
-0.0002466367895017936
-0.0002549039444571609
-0.00025765966277561676
-0.0002631710994125282
-0.00027419397268635144
-0.00028797256427863044
-0.0002962397192339978
-0.00029348400091554195
-0.00029072828259708617
-0.00029348400091554195
-0.00030175115587090934
-0.00030726259250782084
-0.0003045068741893651
-0.0002962397192339978
-0.0003045068741893651
-0.0003100183108262768
-0.0003045068741893651
-0.0002962397192339978
-0.0002962397192339978
-0.00030726259250782084
-0.0003155297474631883
-0.0003127740291447324
-0.00030726259250782084
-0.00030175115587090934
-0.0003100183108262768
-0.00031828546578164407
-0.0003155297474631883
-0.0003045068741893651
-0.00030175115587090934
-0.00030726259250782084
-0.0003045068741893651
-0.00029072828259708617
-0.00027143825436789566
-0.0002631710994125282
-0.0002604153810940725
-0.00027143825436789566
-0.00027143825436789566
-0.0002466367895017936
-0.0002190796063172357
-0.00020530101472495681
-0.00020254529640650095
-0.00020254529640650095
-0.00019703385976958942
-0.00019152242313267784
-0.0001997895780880452
-0.0002190796063172357
-0.00024112535286488197
-0.0002549039444571609
-0.00027143825436789566
-0.0002852168459601746
-0.0003045068741893651
-0.00032379690241855563
-0.0003293083390554673
-0.00032379690241855563
-0.00031828546578164407
-0.00032655262073701135
-0.0003375754940108345
-0.0003375754940108345
-0.00032655262073701135
-0.0003210411841000998
-0.00032655262073701135
-0.0003320640573739229
-0.0003348197756923787
-0.00032655262073701135
-0.00031828546578164407
-0.0002962397192339978
-0.00018325526817731047
8.956084534981241e-05
0.0004974071564812689
0.0009052534676127252
0.0011422452429999228
0.0010678408484016168
0.0007040860303654528
0.00025214822613870384
-0.0001336523384451063
-0.0003403312123292903
-0.0003568655222400251
-0.00036237695887693665
-0.00037339983215075977
-0.00037891126878767127
-0.0003899341420614945
-0.0003954455786984061
-0.0003871784237430386
-0.0003816669871061273
-0.00037891126878767127
-0.0003844227054245829
-0.0003871784237430386
-0.0003844227054245829
-0.00037339983215075977
-0.00036788839551384826
-0.000370644113832304
-0.00037339983215075977
-0.00037339983215075977
-0.0003596212405584808
-0.0003485983672846577
-0.0003430869306477461
-0.0003485983672846577
-0.0003485983672846577
-0.0003403312123292903
-0.0003210411841000998
-0.00031828546578164407
-0.0003210411841000998
-0.00032379690241855563
-0.0003155297474631883
-0.0002989954375524536
-0.0002852168459601746
-0.00027970540932326305
-0.00027694969100480727
-0.00026592681773098404
-0.0002466367895017936
-0.00023010247959105888
-0.0002218353246356915
-0.00021356816968032413
-0.00019703385976958942
-0.00017498811322194308
-0.00015294236667429682
-0.00014467521171892948
-0.00014191949340047367
-0.0001336523384451063
-0.00011436231021591582
-9.78280003051811e-05
-9.231656366826955e-05
-9.231656366826955e-05
-9.231656366826955e-05
-8.404940871290214e-05
-7.57822537575348e-05
-7.57822537575348e-05
-8.129369039444639e-05
-8.956084534981374e-05
-9.507228198672531e-05
-9.78280003051811e-05
-0.00010333943694209268
-0.0001226294651712832
-0.00014191949340047367
-0.00014743093003738526
-0.00015294236667429682
-0.00016396523994811996
-0.00019152242313267784
-0.00021356816968032413
-0.00023010247959105888
-0.00023561391622797047
-0.00024388107118333775
-0.0002631710994125282
-0.0002852168459601746
-0.00028797256427863044
-0.00028797256427863044
-0.0002989954375524536
-0.0003127740291447324
-0.00031828546578164407
-0.0003127740291447324
-0.0003100183108262768
-0.0003127740291447324
-0.0003210411841000998
-0.0003293083390554673
-0.00032655262073701135
-0.0003155297474631883
-0.00031828546578164407
-0.0003293083390554673
-0.0003320640573739229
-0.00032655262073701135
-0.00031828546578164407
-0.0003210411841000998
-0.0003293083390554673
-0.0003348197756923787
-0.0003320640573739229
-0.0003210411841000998
-0.00031828546578164407
-0.00032655262073701135
-0.0003348197756923787
-0.0003320640573739229
-0.00031828546578164407
-0.0003100183108262768
-0.0003100183108262768
-0.0003100183108262768
-0.0003045068741893651
-0.00028797256427863044
-0.00027694969100480727
-0.00027143825436789566
-0.00027694969100480727
-0.00027694969100480727
-0.00025765966277561676
-0.00022734676127260308
-0.0002108124513618684
-0.00020530101472495681
-0.00020530101472495681
-0.0001997895780880452
-0.00018876670481422206
-0.00019427814145113364
-0.00021632388799877996
-0.00023561391622797047
-0.0002604153810940725
-0.00027970540932326305
-0.00028797256427863044
-0.0003045068741893651
-0.0003210411841000998
-0.00032379690241855563
-0.0003210411841000998
-0.00031828546578164407
-0.00032655262073701135
-0.0003348197756923787
-0.0003348197756923787
-0.00032655262073701135
-0.00031828546578164407
-0.0003210411841000998
-0.0003293083390554673
-0.0003348197756923787
-0.00032655262073701135
-0.0003127740291447324
-0.00028797256427863044
0.00010609515526054714
0.0005304757763027383
0.000960367833981841
0.0012194053559166852
0.0011477566796368347
0.0007619561150530243
0.0002769496910048059
-0.0001336523384451063
-0.0003375754940108345
-0.0003458426489662019
-0.00035410980392156926
-0.000370644113832304
-0.00037339983215075977
-0.00037615555046921565
-0.0003816669871061273
-0.0003871784237430386
-0.0003871784237430386
-0.00037891126878767127
-0.00037339983215075977
-0.00037615555046921565
-0.00037891126878767127
-0.00037339983215075977
-0.0003651326771953924
-0.00035410980392156926
-0.0003568655222400251
-0.00036237695887693665
-0.0003596212405584808
-0.0003485983672846577
-0.0003375754940108345
-0.0003348197756923787
-0.0003375754940108345
-0.0003375754940108345
-0.00032379690241855563
-0.0003100183108262768
-0.0003045068741893651
-0.00030726259250782084
-0.0003100183108262768
-0.0002962397192339978
-0.00027970540932326305
-0.0002631710994125282
-0.0002604153810940725
-0.00025765966277561676
-0.00024388107118333775
-0.0002218353246356915
-0.00020254529640650095
-0.00019427814145113364
-0.00019152242313267784
-0.00017498811322194308
-0.000150186648355841
-0.00012814090180819475
-0.0001198737468528274
-0.00011160659189746003
-9.78280003051811e-05
-8.129369039444639e-05
-6.200366216525588e-05
-5.098078889143272e-05
-4.8225070572976926e-05
-4.8225070572976926e-05
-3.995791561760957e-05
-2.6179324025330647e-05
-2.6179324025330647e-05
-3.4446478980697995e-05
-4.2713633936065354e-05
-4.5469352254521147e-05
-4.5469352254521147e-05
-5.098078889143272e-05
-8.956084534981374e-05
-0.00010333943694209268
-0.00010885087357900426
-0.0001226294651712832
-0.00014743093003738526
-0.00017223239490348733
-0.00018876670481422206
-0.00019703385976958942
-0.0002080567330434125
-0.00022459104295414727
-0.0002466367895017936
-0.0002604153810940725
-0.00026592681773098404
-0.00026592681773098404
-0.00027419397268635144
-0.0002852168459601746
-0.00029348400091554195
-0.00029072828259708617
-0.0002852168459601746
-0.00028797256427863044
-0.0002989954375524536
-0.0003045068741893651
-0.0002989954375524536
-0.00028797256427863044
-0.00029072828259708617
-0.0002989954375524536
-0.00030726259250782084
-0.0003045068741893651
-0.0002989954375524536
-0.0002989954375524536
-0.00030175115587090934
-0.0003100183108262768
-0.00030726259250782084
-0.0002989954375524536
-0.00029348400091554195
-0.00030175115587090934
-0.0003045068741893651
-0.0002989954375524536
-0.00029348400091554195
-0.0002852168459601746
-0.0002852168459601746
-0.0002852168459601746
-0.00027694969100480727
-0.0002631710994125282
-0.00024388107118333775
-0.00023836963454642628
-0.00024388107118333775
-0.00024939250782024937
-0.00023836963454642628
-0.0002108124513618684
-0.00019152242313267784
-0.00018601098649576628
-0.00018049954985885472
-0.00016947667658503157
-0.0001584538033112084
-0.0001612095216296642
-0.00018049954985885472
-0.0001997895780880452
-0.00021632388799877996
-0.00023285819790951464
-0.0002521482261387052
-0.00027694969100480727
-0.0002962397192339978
-0.0002989954375524536
-0.00029348400091554195
-0.0002989954375524536
-0.0003127740291447324
-0.0003127740291447324
-0.00030175115587090934
-0.00029348400091554195
-0.00029348400091554195
-0.0002989954375524536
-0.0003045068741893651
-0.00030175115587090934
-0.0002852168459601746
-0.00027419397268635144
-0.00020254529640650095
2.6179324025329308e-05
0.0004340256351567857
0.00092178777752346
0.0012882983138780798
0.001337901243610284
0.0010044593270771337
0.0004505599450675205
-7.027081712062322e-05
-0.0003651326771953924
-0.00040646845197222917
-0.000370644113832304
-0.0003596212405584808
-0.0003568655222400251
-0.00035410980392156926
-0.00036237695887693665
-0.00037339983215075977
-0.00037615555046921565
-0.00036788839551384826
-0.0003568655222400251
-0.0003568655222400251
-0.0003651326771953924
-0.00036237695887693665
-0.0003513540856031135
-0.0003403312123292903
-0.0003403312123292903
-0.0003458426489662019
-0.0003430869306477461
-0.0003320640573739229
-0.0003210411841000998
-0.00031828546578164407
-0.0003155297474631883
-0.0003155297474631883
-0.00030726259250782084
-0.00029072828259708617
-0.0002824611276417188
-0.0002852168459601746
-0.0002852168459601746
-0.00026592681773098404
-0.00024939250782024937
-0.00023561391622797047
-0.00023561391622797047
-0.00023285819790951464
-0.0002190796063172357
-0.0001997895780880452
-0.00018049954985885472
-0.00017223239490348733
-0.0001584538033112084
-0.00014467521171892948
-0.0001198737468528274
-9.507228198672531e-05
-7.85379720759906e-05
-7.302653543907902e-05
-6.200366216525588e-05
-1.7912169069963278e-05
-6.889295796140132e-06
-4.133577477684346e-06
-1.377859159228559e-06
1.2400732433050376e-05
2.6179324025329308e-05
2.8935042343785094e-05
2.6179324025329308e-05
1.7912169069961946e-05
1.5156450751506162e-05
1.5156450751506162e-05
6.8892957961388014e-06
-1.240073243305171e-05
-3.4446478980697995e-05
-4.8225070572976926e-05
-5.6492225528344285e-05
-6.751509880216745e-05
-9.231656366826955e-05
-0.00012538518348973897
-0.000150186648355841
-0.00016396523994811996
-0.00018049954985885472
-0.00020530101472495681
-0.00023010247959105888
-0.00024112535286488197
-0.0002466367895017936
-0.00024939250782024937
-0.00025765966277561676
-0.00027143825436789566
-0.00027970540932326305
-0.00027970540932326305
-0.00027694969100480727
-0.00027419397268635144
-0.0002824611276417188
-0.00029072828259708617
-0.00028797256427863044
-0.00027694969100480727
-0.00027694969100480727
-0.00028797256427863044
-0.00029348400091554195
-0.0002824611276417188
-0.00027694969100480727
-0.00027694969100480727
-0.0002824611276417188
-0.00029072828259708617
-0.00029072828259708617
-0.0002852168459601746
-0.00027694969100480727
-0.00027970540932326305
-0.0002824611276417188
-0.0002852168459601746
-0.00027970540932326305
-0.00027143825436789566
-0.0002686825360494398
-0.0002686825360494398
-0.0002631710994125282
-0.00024939250782024937
-0.00023836963454642628
-0.00023285819790951464
-0.00023836963454642628
-0.00024388107118333775
-0.00022734676127260308
-0.00019703385976958942
-0.00018325526817731047
-0.00017223239490348733
-0.00016672095826657574
-0.0001612095216296642
-0.00016396523994811996
-0.0001777438315403989
-0.0001997895780880452
-0.00022459104295414727
-0.00024112535286488197
-0.00024939250782024937
-0.00027143825436789566
-0.0002852168459601746
-0.00028797256427863044
-0.0002852168459601746
-0.0002824611276417188
-0.00028797256427863044
-0.0002962397192339978
-0.0002989954375524536
-0.00029072828259708617
-0.0002824611276417188
-0.0002824611276417188
-0.00029072828259708617
-0.0002962397192339978
-0.0002824611276417188
-0.00026592681773098404
-0.00021356816968032413
-2.342360570687485e-05
0.0003485983672846564
0.0008418719462882423
0.0012800311589227123
0.0014398628213931478
0.0011973596093690386
0.0006627502555886161
0.00010058371862363556
-0.00027694969100480727
-0.00037891126878767127
-0.0003513540856031135
-0.0003485983672846577
-0.0003596212405584808
-0.0003568655222400251
-0.00035410980392156926
-0.00036237695887693665
-0.000370644113832304
-0.000370644113832304
-0.00036237695887693665
-0.0003513540856031135
-0.0003513540856031135
-0.0003568655222400251
-0.0003568655222400251
-0.0003458426489662019
-0.0003348197756923787
-0.0003293083390554673
-0.0003375754940108345
-0.0003430869306477461
-0.0003293083390554673
-0.0003155297474631883
-0.0003100183108262768
-0.00030726259250782084
-0.00030726259250782084
-0.0002989954375524536
-0.00028797256427863044
-0.00027970540932326305
-0.00027694969100480727
-0.00027970540932326305
-0.00026592681773098404
-0.00024939250782024937
-0.00023285819790951464
-0.0002218353246356915
-0.0002108124513618684
-0.00018876670481422206
-0.00016672095826657574
-0.00015569808499275262
-0.00014467521171892948
-0.00013089662012665053
-0.00010609515526054846
-7.57822537575348e-05
-5.9247943846800084e-05
-5.098078889143272e-05
-3.995791561760957e-05
-1.7912169069963278e-05
4.133577477683014e-06
1.5156450751506162e-05
1.5156450751506162e-05
1.7912169069961946e-05
2.6179324025329308e-05
3.9957915617608246e-05
4.271363393606403e-05
3.444647898069667e-05
2.3423605706873515e-05
1.5156450751506162e-05
1.5156450751506162e-05
9.64501411459459e-06
-6.889295796140132e-06
-2.8935042343786426e-05
-4.8225070572976926e-05
-5.9247943846800084e-05
-7.027081712062322e-05
-0.00010058371862363688
-0.0001336523384451063
-0.00015569808499275262
-0.00016947667658503157
-0.00018601098649576628
-0.0002080567330434125
-0.00023010247959105888
-0.00024388107118333775
-0.00024939250782024937
-0.00024939250782024937
-0.0002549039444571609
-0.00026592681773098404
-0.00027419397268635144
-0.00027419397268635144
-0.0002686825360494398
-0.00027143825436789566
-0.0002824611276417188
-0.00028797256427863044
-0.00027970540932326305
-0.00027143825436789566
-0.0002686825360494398
-0.00027419397268635144
-0.0002824611276417188
-0.0002824611276417188
-0.00027419397268635144
-0.00027143825436789566
-0.00027419397268635144
-0.0002824611276417188
-0.0002824611276417188
-0.00027694969100480727
-0.0002686825360494398
-0.00027419397268635144
-0.0002824611276417188
-0.0002824611276417188
-0.00027143825436789566
-0.0002604153810940725
-0.0002631710994125282
-0.00025765966277561676
-0.00024939250782024937
-0.00023561391622797047
-0.00023010247959105888
-0.00023285819790951464
-0.00023010247959105888
-0.00020530101472495681
-0.0001777438315403989
-0.0001612095216296642
-0.00016396523994811996
-0.00016947667658503157
-0.00016396523994811996
-0.0001612095216296642
-0.00016947667658503157
-0.00018876670481422206
-0.00021632388799877996
-0.00024112535286488197
-0.0002521482261387052
-0.0002631710994125282
-0.00027694969100480727
-0.00029072828259708617
-0.0002962397192339978
-0.00029348400091554195
-0.00028797256427863044
-0.00028797256427863044
-0.0002962397192339978
-0.00030175115587090934
-0.0002962397192339978
-0.00028797256427863044
-0.00029072828259708617
-0.0002989954375524536
-0.0002989954375524536
-0.00029072828259708617
-0.0002631710994125282
-0.00012814090180819475
0.00017774383154039756
0.0006489716639963371
0.001136733806363011
0.0014398628213931478
0.001379237018387121
0.0009465892423895617
0.00036788839551384685
-0.0001171180285343716
-0.0003513540856031135
-0.00035410980392156926
-0.0003348197756923787
-0.0003568655222400251
-0.000370644113832304
-0.00036788839551384826
-0.00036237695887693665
-0.00036788839551384826
-0.00037615555046921565
-0.00037891126878767127
-0.000370644113832304
-0.0003596212405584808
-0.0003596212405584808
-0.0003651326771953924
-0.00036237695887693665
-0.00035410980392156926
-0.0003458426489662019
-0.0003430869306477461
-0.0003458426489662019
-0.0003485983672846577
-0.0003375754940108345
-0.0003127740291447324
-0.0003127740291447324
-0.0003155297474631883
-0.00030726259250782084
-0.00029348400091554195
-0.00027970540932326305
-0.00027419397268635144
-0.00027419397268635144
-0.0002686825360494398
-0.0002521482261387052
-0.00023836963454642628
-0.00023010247959105888
-0.0002218353246356915
-0.0002080567330434125
-0.00018876670481422206
-0.00016672095826657574
-0.000150186648355841
-0.0001391637750820179
-0.00012814090180819475
-0.00010333943694209268
-7.57822537575348e-05
-5.9247943846800084e-05
-4.8225070572976926e-05
-3.995791561760957e-05
-2.342360570687485e-05
-4.133577477684346e-06
6.8892957961388014e-06
6.8892957961388014e-06
6.8892957961388014e-06
1.2400732433050376e-05
2.3423605706873515e-05
2.8935042343785094e-05
2.066788738841773e-05
6.8892957961388014e-06
-4.133577477684346e-06
-9.64501411459592e-06
-1.7912169069963278e-05
-3.4446478980697995e-05
-5.9247943846800084e-05
-7.57822537575348e-05
-8.956084534981374e-05
-0.00010333943694209268
-0.00012814090180819475
-0.0001584538033112084
-0.00018049954985885472
-0.00019152242313267784
-0.00020254529640650095
-0.00021632388799877996
-0.00023836963454642628
-0.0002549039444571609
-0.0002604153810940725
-0.0002549039444571609
-0.0002604153810940725
-0.00027419397268635144
-0.00027970540932326305
-0.00027970540932326305
-0.00027694969100480727
-0.00027143825436789566
-0.00027694969100480727
-0.0002852168459601746
-0.0002824611276417188
-0.00027970540932326305
-0.00027694969100480727
-0.0002824611276417188
-0.00029072828259708617
-0.0002824611276417188
-0.00027970540932326305
-0.0002824611276417188
-0.00029072828259708617
-0.00029072828259708617
-0.0002852168459601746
-0.00027970540932326305
-0.0002824611276417188
-0.00029348400091554195
-0.00030175115587090934
-0.00029072828259708617
-0.00027419397268635144
-0.0002686825360494398
-0.0002686825360494398
-0.0002631710994125282
-0.0002549039444571609
-0.00024388107118333775
-0.00024112535286488197
-0.00024388107118333775
-0.00023836963454642628
-0.00021356816968032413
-0.00018876670481422206
-0.00016947667658503157
-0.00016947667658503157
-0.0001777438315403989
-0.0001777438315403989
-0.0001777438315403989
-0.00018049954985885472
-0.0001997895780880452
-0.00023285819790951464
-0.00025765966277561676
-0.00026592681773098404
-0.00027143825436789566
-0.0002852168459601746
-0.0002989954375524536
-0.00030726259250782084
-0.00030175115587090934
-0.00029348400091554195
-0.0002962397192339978
-0.00030726259250782084
-0.0003100183108262768
-0.0003045068741893651
-0.0002962397192339978
-0.0002962397192339978
-0.00030175115587090934
-0.00030175115587090934
-0.0002962397192339978
-0.00025765966277561676
-9.78280003051811e-05
0.00024112535286488067
0.0007343989318684667
0.0012138939192797731
0.0014784428778515288
0.00135994699015793
0.0008914748760204465
0.00031001831082627527
-0.0001584538033112084
-0.0003568655222400251
-0.0003458426489662019
-0.0003403312123292903
-0.00036237695887693665
-0.00037339983215075977
-0.00037615555046921565
-0.000370644113832304
-0.000370644113832304
-0.00037339983215075977
-0.000370644113832304
-0.00036237695887693665
-0.0003568655222400251
-0.00036237695887693665
-0.00036788839551384826
-0.0003596212405584808
-0.0003458426489662019
-0.0003403312123292903
-0.0003430869306477461
-0.0003430869306477461
-0.0003403312123292903
-0.00032655262073701135
-0.00031828546578164407
-0.00031828546578164407
-0.0003210411841000998
-0.0003100183108262768
-0.0002989954375524536
-0.00028797256427863044
-0.00027970540932326305
-0.00027970540932326305
-0.00027143825436789566
-0.0002521482261387052
-0.00023561391622797047
-0.00022734676127260308
-0.00022459104295414727
-0.00021356816968032413
-0.00018876670481422206
-0.0001612095216296642
-0.00014191949340047367
-0.0001336523384451063
-0.0001198737468528274
-9.78280003051811e-05
-7.027081712062322e-05
-5.098078889143272e-05
-4.2713633936065354e-05
-3.4446478980697995e-05
-1.5156450751507488e-05
1.3778591592272275e-06
1.5156450751506162e-05
1.5156450751506162e-05
1.2400732433050376e-05
2.066788738841773e-05
2.8935042343785094e-05
2.8935042343785094e-05
2.066788738841773e-05
1.3778591592272275e-06
-6.889295796140132e-06
-9.64501411459592e-06
-1.5156450751507488e-05
-3.169076066224221e-05
-5.6492225528344285e-05
-8.129369039444639e-05
-9.507228198672531e-05
-0.00010609515526054846
-0.00013089662012665053
-0.00016396523994811996
-0.00018876670481422206
-0.0001997895780880452
-0.00020530101472495681
-0.0002190796063172357
-0.00023836963454642628
-0.0002549039444571609
-0.00025765966277561676
-0.0002549039444571609
-0.0002604153810940725
-0.0002852168459601746
-0.0002852168459601746
-0.00027970540932326305
-0.00027694969100480727
-0.0002824611276417188
-0.00029348400091554195
-0.0002962397192339978
-0.00029072828259708617
-0.0002852168459601746
-0.00029072828259708617
-0.0002989954375524536
-0.00030175115587090934
-0.00029348400091554195
-0.00029072828259708617
-0.00029348400091554195
-0.00030175115587090934
-0.0003045068741893651
-0.0002962397192339978
-0.00028797256427863044
-0.00028797256427863044
-0.0002962397192339978
-0.0002989954375524536
-0.00029072828259708617
-0.00027143825436789566
-0.0002631710994125282
-0.0002631710994125282
-0.0002631710994125282
-0.00025765966277561676
-0.0002466367895017936
-0.00024112535286488197
-0.00022734676127260308
-0.00021632388799877996
-0.0001997895780880452
-0.00018049954985885472
-0.00016947667658503157
-0.00016947667658503157
-0.00018325526817731047
-0.00019152242313267784
-0.00019703385976958942
-0.0002108124513618684
-0.00024112535286488197
-0.00027143825436789566
-0.0002852168459601746
-0.00028797256427863044
-0.00028797256427863044
-0.0002962397192339978
-0.00030726259250782084
-0.0003127740291447324
-0.0003100183108262768
-0.0002962397192339978
-0.0002962397192339978
-0.00030726259250782084
-0.0003100183108262768
-0.00030175115587090934
-0.0002962397192339978
-0.0002989954375524536
-0.00030175115587090934
-0.00030726259250782084
-0.0002604153810940725
-5.098078889143272e-05
0.00035135408560311223
0.0008639176928358884
0.0013048326237888143
0.0014867100328068963
0.0012800311589227123
0.000210812451361867
-0.0002218353246356915
-0.000370644113832304
-0.0003430869306477461
-0.0003403312123292903
-0.0003596212405584808
-0.00037615555046921565
-0.0003844227054245829
-0.00037891126878767127
-0.00036788839551384826
-0.00036788839551384826
-0.00037615555046921565
-0.00037891126878767127
-0.00037615555046921565
-0.0003651326771953924
-0.00036237695887693665
-0.0003651326771953924
-0.00036788839551384826
-0.00036237695887693665
-0.0003485983672846577
-0.0003375754940108345
-0.0003403312123292903
-0.0003430869306477461
-0.0003375754940108345
-0.00032379690241855563
-0.0003100183108262768
-0.0003045068741893651
-0.0003045068741893651
-0.0002989954375524536
-0.0002852168459601746
-0.00027694969100480727
-0.00027143825436789566
-0.00027143825436789566
-0.00026592681773098404
-0.0002466367895017936
-0.00022459104295414727
-0.0002108124513618684
-0.00020530101472495681
-0.00019427814145113364
-0.00017223239490348733
-0.00014467521171892948
-0.00012538518348973897
-0.00011436231021591582
-0.00010609515526054846
-8.404940871290214e-05
-5.3736507209888505e-05
-3.169076066224221e-05
-2.6179324025330647e-05
-2.342360570687485e-05
-1.240073243305171e-05
1.3778591592272275e-06
1.5156450751506162e-05
1.7912169069961946e-05
9.64501411459459e-06
4.133577477683014e-06
6.8892957961388014e-06
6.8892957961388014e-06
-6.889295796140132e-06
-2.342360570687485e-05
-3.720219729915378e-05
-4.8225070572976926e-05
-5.6492225528344285e-05
-7.57822537575348e-05
-0.00010333943694209268
-0.00012814090180819475
-0.00015294236667429682
-0.0001777438315403989
-0.00020254529640650095
-0.00022459104295414727
-0.00023836963454642628
-0.00024388107118333775
-0.0002549039444571609
-0.00027143825436789566
-0.00027970540932326305
-0.0002824611276417188
-0.00027970540932326305
-0.00027970540932326305
-0.00029348400091554195
-0.0003045068741893651
-0.0003045068741893651
-0.0002962397192339978
-0.00029072828259708617
-0.0002962397192339978
-0.0003045068741893651
-0.0003100183108262768
-0.00030175115587090934
-0.00029348400091554195
-0.00029348400091554195
-0.0003045068741893651
-0.00030726259250782084
-0.0003045068741893651
-0.0002989954375524536
-0.0002989954375524536
-0.00030726259250782084
-0.0003100183108262768
-0.00030726259250782084
-0.00030175115587090934
-0.0002989954375524536
-0.00030175115587090934
-0.00030175115587090934
-0.00029072828259708617
-0.00027143825436789566
-0.0002631710994125282
-0.00026592681773098404
-0.00027419397268635144
-0.00027143825436789566
-0.00024388107118333775
-0.00021632388799877996
-0.0002080567330434125
-0.00020254529640650095
-0.00019703385976958942
-0.00018876670481422206
-0.00018325526817731047
-0.00019427814145113364
-0.0002108124513618684
-0.00022459104295414727
-0.00024388107118333775
-0.00025765966277561676
-0.00027694969100480727
-0.0002989954375524536
-0.0003127740291447324
-0.0003155297474631883
-0.0003100183108262768
-0.0003100183108262768
-0.0003210411841000998
-0.00032655262073701135
-0.00031828546578164407
-0.0003100183108262768
-0.0003100183108262768
-0.0003155297474631883
-0.00032379690241855563
-0.0003155297474631883
-0.0003100183108262768
-0.0003045068741893651
-0.0001997895780880452
8.129369039444505e-05
0.000508430029755092
0.0009631235523002968
0.0012607411306935217
0.0012386953841458756
0.0008804520027466232
0.0003844227054245816
-6.475938048371164e-05
-0.0003293083390554673
-0.00036237695887693665
-0.0003568655222400251
-0.00036788839551384826
-0.00037339983215075977
-0.00037891126878767127
-0.0003899341420614945
-0.0003899341420614945
-0.0003871784237430386
-0.00037891126878767127
-0.00037615555046921565
-0.0003844227054245829
-0.0003844227054245829
-0.00037891126878767127
-0.00036788839551384826
-0.00036788839551384826
-0.00036788839551384826
-0.00036788839551384826
-0.00036237695887693665
-0.00035410980392156926
-0.0003458426489662019
-0.0003458426489662019
-0.0003513540856031135
-0.0003458426489662019
-0.0003320640573739229
-0.00031828546578164407
-0.00031828546578164407
-0.00031828546578164407
-0.0003155297474631883
-0.00030175115587090934
-0.0002824611276417188
-0.00027694969100480727
-0.00027694969100480727
-0.00027143825436789566
-0.00025765966277561676
-0.00023561391622797047
-0.0002218353246356915
-0.0002218353246356915
-0.0002108124513618684
-0.00018876670481422206
-0.00016396523994811996
-0.00014743093003738526
-0.0001391637750820179
-0.00013089662012665053
-0.0001171180285343716
-9.507228198672531e-05
-7.57822537575348e-05
-7.57822537575348e-05
-7.85379720759906e-05
-7.027081712062322e-05
-5.3736507209888505e-05
-4.5469352254521147e-05
-4.8225070572976926e-05
-6.475938048371164e-05
-6.475938048371164e-05
-7.027081712062322e-05
-7.85379720759906e-05
-9.78280003051811e-05
-0.0001198737468528274
-0.0001226294651712832
-0.00013089662012665053
-0.00014467521171892948
-0.00016947667658503157
-0.00019427814145113364
-0.0002108124513618684
-0.00021632388799877996
-0.00023285819790951464
-0.00025765966277561676
-0.00027419397268635144
-0.00027970540932326305
-0.00027694969100480727
-0.0002824611276417188
-0.0002962397192339978
-0.00030726259250782084
-0.0003100183108262768
-0.00030726259250782084
-0.00030175115587090934
-0.00030726259250782084
-0.0003127740291447324
-0.0003155297474631883
-0.0003100183108262768
-0.00030175115587090934
-0.0003100183108262768
-0.00031828546578164407
-0.00031828546578164407
-0.0003127740291447324
-0.00030726259250782084
-0.0003100183108262768
-0.00031828546578164407
-0.00032379690241855563
-0.00032379690241855563
-0.0003155297474631883
-0.0003127740291447324
-0.0003210411841000998
-0.00032655262073701135
-0.00032379690241855563
-0.0003100183108262768
-0.0002962397192339978
-0.00029348400091554195
-0.0002962397192339978
-0.00028797256427863044
-0.00027143825436789566
-0.0002631710994125282
-0.00026592681773098404
-0.0002631710994125282
-0.00024112535286488197
-0.0002190796063172357
-0.00020254529640650095
-0.0001997895780880452
-0.0002108124513618684
-0.00021356816968032413
-0.0002108124513618684
-0.00021356816968032413
-0.00023010247959105888
-0.0002549039444571609
-0.0002824611276417188
-0.0002962397192339978
-0.0002989954375524536
-0.00032379690241855563
-0.0003348197756923787
-0.0003320640573739229
-0.0003210411841000998
-0.0003210411841000998
