0.00014743093003738393
0.00013365233844510492
0.0001253851834897376
0.00011160659189745871
8.68051270313566e-05
7.02708171206219e-05
6.200366216525454e-05
6.200366216525454e-05
5.649222552834297e-05
4.82250705729756e-05
3.720219729915245e-05
3.444647898069667e-05
3.720219729915245e-05
3.444647898069667e-05
2.3423605706873515e-05
1.5156450751506162e-05
1.2400732433050376e-05
1.7912169069961946e-05
2.066788738841773e-05
1.7912169069961946e-05
1.2400732433050376e-05
1.2400732433050376e-05
2.3423605706873515e-05
3.444647898069667e-05
3.720219729915245e-05
3.169076066224089e-05
3.169076066224089e-05
4.82250705729756e-05
7.853797207598924e-05
0.00010609515526054714
0.00010885087357900291
0.00011160659189745871
0.00011987374685282605
0.00012262946517128183
0.00011160659189745871
0.00010058371862363556
0.00010058371862363556
8.68051270313566e-05
6.475938048371032e-05
4.271363393606403e-05
2.6179324025329308e-05
2.066788738841773e-05
2.8935042343785094e-05
3.169076066224089e-05
2.3423605706873515e-05
1.5156450751506162e-05
1.2400732433050376e-05
2.066788738841773e-05
3.169076066224089e-05
2.8935042343785094e-05
2.066788738841773e-05
1.7912169069961946e-05
2.3423605706873515e-05
3.720219729915245e-05
5.098078889143139e-05
0.00012814090180819342
0.00035410980392156795
0.0007702232700083917
0.0012497182574196988
0.0015748930189974813
0.0015556029907682909
0.001136733806363011
0.0005525215228503846
9.507228198672396e-05
-0.00016672095826657574
-0.00020254529640650095
-0.0001336523384451063
-8.956084534981374e-05
-6.475938048371164e-05
-4.5469352254521147e-05
-3.995791561760957e-05
-4.2713633936065354e-05
-4.2713633936065354e-05
-3.4446478980697995e-05
-2.342360570687485e-05
-2.342360570687485e-05
-2.6179324025330647e-05
-2.342360570687485e-05
-1.240073243305171e-05
-1.377859159228559e-06
6.8892957961388014e-06
4.133577477683014e-06
-1.377859159228559e-06
9.64501411459459e-06
2.066788738841773e-05
2.6179324025329308e-05
2.6179324025329308e-05
2.3423605706873515e-05
2.8935042343785094e-05
4.546935225451981e-05
5.9247943846798756e-05
6.200366216525454e-05
6.475938048371032e-05
7.578225375753347e-05
0.00012262946517128183
0.00013640805676356078
0.00015018664835583973
0.00016672095826657444
0.00019427814145113231
0.00023010247959105753
0.0002576596627756154
0.0002769496910048059
0.0002934840009155406
0.00032104118410009855
0.0003485983672846564
0.00036788839551384685
0.0003816669871061258
0.00038717842374303736
0.0003982012970168605
0.00041473560692759526
0.00042024704356450677
0.00041197988860913943
0.0003982012970168605
0.00038993414206149314
0.00038717842374303736
0.00037615555046921414
0.00035135408560311223
0.00032104118410009855
0.000301751155870908
0.0002852168459601733
0.0002686825360494386
0.00024112535286488067
0.000210812451361867
0.0001832552681773092
0.00016672095826657444
0.00015018664835583973
0.00013089662012664922
0.00010609515526054714
8.404940871290084e-05
7.30265354390777e-05
7.02708171206219e-05
6.200366216525454e-05
4.82250705729756e-05
3.444647898069667e-05
3.169076066224089e-05
3.720219729915245e-05
3.720219729915245e-05
2.6179324025329308e-05
1.7912169069961946e-05
1.2400732433050376e-05
1.7912169069961946e-05
1.7912169069961946e-05
1.2400732433050376e-05
9.64501411459459e-06
1.2400732433050376e-05
2.6179324025329308e-05
3.169076066224089e-05
3.444647898069667e-05
3.444647898069667e-05
3.169076066224089e-05
4.82250705729756e-05
7.853797207598924e-05
0.00010058371862363556
0.00010609515526054714
0.00011160659189745871
0.00011987374685282605
0.00012814090180819342
0.0001253851834897376
0.00011436231021591448
0.00010058371862363556
8.956084534981241e-05
6.751509880216611e-05
5.098078889143139e-05
3.444647898069667e-05
2.8935042343785094e-05
3.720219729915245e-05
3.9957915617608246e-05
3.169076066224089e-05
2.066788738841773e-05
1.7912169069961946e-05
2.6179324025329308e-05
3.169076066224089e-05
3.169076066224089e-05
2.3423605706873515e-05
1.7912169069961946e-05
1.7912169069961946e-05
2.6179324025329308e-05
3.9957915617608246e-05
0.00012262946517128183
0.0003623769588769353
0.0008115590447852286
0.0013103440604257258
0.0016272516670481415
0.0015693815823605698
0.0010843751583123511
0.00047536140993362247
1.2400732433050376e-05
-0.00023561391622797047
-0.00024388107118333775
-0.00016672095826657574
-0.0001171180285343716
-9.507228198672531e-05
-7.57822537575348e-05
-6.751509880216745e-05
-6.751509880216745e-05
-6.200366216525588e-05
-5.098078889143272e-05
-3.720219729915378e-05
-3.720219729915378e-05
-3.995791561760957e-05
-3.995791561760957e-05
-3.4446478980697995e-05
-2.066788738841907e-05
-1.5156450751507488e-05
-2.066788738841907e-05
-2.066788738841907e-05
-9.64501411459592e-06
-1.377859159228559e-06
9.64501411459459e-06
9.64501411459459e-06
6.8892957961388014e-06
1.5156450751506162e-05
2.8935042343785094e-05
3.9957915617608246e-05
4.271363393606403e-05
4.82250705729756e-05
5.9247943846798756e-05
8.129369039444505e-05
0.00010333943694209132
0.00011711802853437029
0.00012814090180819342
0.00014467521171892812
0.00017498811322194178
0.0002135681696803228
0.00026041538109407124
0.00027970540932326175
0.00030450687418936376
0.0003293083390554659
0.00035410980392156795
0.0003568655222400236
0.0003596212405584795
0.00036788839551384685
0.00037615555046921414
0.00037615555046921414
0.00037064411383230263
0.00035135408560311223
0.0003375754940108332
0.0003348197756923775
0.00032379690241855427
0.00029623971923399637
0.0002686825360494386
0.00024663678950179223
0.00023010247959105753
0.00021632388799877858
0.00019152242313267648
0.00016672095826657444
0.00013916377508201656
0.00011987374685282605
0.00010885087357900291
8.956084534981241e-05
6.475938048371032e-05
4.82250705729756e-05
3.9957915617608246e-05
3.720219729915245e-05
3.169076066224089e-05
2.066788738841773e-05
9.64501411459459e-06
4.133577477683014e-06
9.64501411459459e-06
6.8892957961388014e-06
-4.133577477684346e-06
-1.5156450751507488e-05
-1.7912169069963278e-05
-1.5156450751507488e-05
-1.240073243305171e-05
-1.240073243305171e-05
-1.5156450751507488e-05
-9.64501411459592e-06
1.3778591592272275e-06
1.2400732433050376e-05
1.2400732433050376e-05
9.64501411459459e-06
6.8892957961388014e-06
2.3423605706873515e-05
5.098078889143139e-05
7.02708171206219e-05
7.578225375753347e-05
7.853797207598924e-05
8.68051270313566e-05
9.507228198672396e-05
9.507228198672396e-05
7.853797207598924e-05
6.475938048371032e-05
5.9247943846798756e-05
4.82250705729756e-05
2.3423605706873515e-05
4.133577477683014e-06
-1.240073243305171e-05
-1.7912169069963278e-05
-1.377859159228559e-06
-4.133577477684346e-06
-1.7912169069963278e-05
-2.066788738841907e-05
-1.5156450751507488e-05
-4.133577477684346e-06
-1.377859159228559e-06
-9.64501411459592e-06
-1.5156450751507488e-05
-1.240073243305171e-05
1.3778591592272275e-06
1.5156450751506162e-05
8.956084534981241e-05
0.0003182854657816428
0.0007454218051422897
0.001244206820782787
0.0015941830472266717
0.0015941830472266717
0.0011615352712291134
0.0005497658045319286
6.200366216525454e-05
-0.0002108124513618684
-0.00024939250782024937
-0.00018049954985885472
-0.00013089662012665053
-0.00010609515526054846
-8.956084534981374e-05
-8.404940871290214e-05
-8.956084534981374e-05
-8.956084534981374e-05
-7.57822537575348e-05
-6.200366216525588e-05
-6.200366216525588e-05
-6.475938048371164e-05
-6.200366216525588e-05
-5.3736507209888505e-05
-3.995791561760957e-05
-3.4446478980697995e-05
-3.720219729915378e-05
-4.2713633936065354e-05
-3.720219729915378e-05
-2.342360570687485e-05
-1.7912169069963278e-05
-2.066788738841907e-05
-2.066788738841907e-05
-1.5156450751507488e-05
4.133577477683014e-06
1.7912169069961946e-05
2.3423605706873515e-05
2.3423605706873515e-05
3.169076066224089e-05
5.373650720988717e-05
7.578225375753347e-05
8.68051270313566e-05
9.782800030517979e-05
0.00011987374685282605
0.00015018664835583973
0.00018601098649576498
0.0002135681696803228
0.00023285819790951333
0.0002549039444571596
0.0002852168459601733
0.0003127740291447311
0.00033206405737392166
0.0003430869306477448
0.0003568655222400236
0.00036788839551384685
0.00037064411383230263
0.0003623769588769353
0.0003485983672846564
0.0003375754940108332
0.00033206405737392166
0.0003182854657816428
0.0002934840009155406
0.00026592681773098274
0.00024388107118333642
0.00023010247959105753
0.0002135681696803228
0.00018876670481422076
0.00015845380331120705
0.00012814090180819342
0.00010885087357900291
9.23165636682682e-05
7.02708171206219e-05
4.271363393606403e-05
2.066788738841773e-05
1.2400732433050376e-05
9.64501411459459e-06
-1.377859159228559e-06
-1.5156450751507488e-05
-2.6179324025330647e-05
-3.169076066224221e-05
-2.8935042343786426e-05
-2.6179324025330647e-05
-3.720219729915378e-05
-4.8225070572976926e-05
-5.098078889143272e-05
-4.8225070572976926e-05
-4.5469352254521147e-05
-4.8225070572976926e-05
-5.098078889143272e-05
-4.5469352254521147e-05
-3.995791561760957e-05
-2.8935042343786426e-05
-2.6179324025330647e-05
-2.8935042343786426e-05
-3.169076066224221e-05
-1.240073243305171e-05
2.066788738841773e-05
3.720219729915245e-05
4.271363393606403e-05
4.546935225451981e-05
5.649222552834297e-05
6.751509880216611e-05
6.200366216525454e-05
4.546935225451981e-05
3.720219729915245e-05
3.444647898069667e-05
1.2400732433050376e-05
-1.240073243305171e-05
-2.8935042343786426e-05
-3.995791561760957e-05
-4.2713633936065354e-05
-3.995791561760957e-05
-3.720219729915378e-05
-4.5469352254521147e-05
-5.6492225528344285e-05
-5.6492225528344285e-05
-4.8225070572976926e-05
-3.995791561760957e-05
-4.2713633936065354e-05
-5.9247943846800084e-05
-5.3736507209888505e-05
-3.720219729915378e-05
-1.5156450751507488e-05
9.23165636682682e-05
0.0003733998321507585
0.0008391162279697863
0.001324122652018005
0.0015886716105897604
0.0014453742580300595
0.000908009185931181
0.00031001831082627527
-0.00012814090180819475
-0.0003293083390554673
-0.0002989954375524536
-0.00022459104295414727
-0.00018325526817731047
-0.0001584538033112084
-0.00014191949340047367
-0.0001391637750820179
-0.00014191949340047367
-0.0001364080567635621
-0.0001226294651712832
-0.00011436231021591582
-0.00011160659189746003
-0.00011160659189746003
-0.00010885087357900426
-0.00010058371862363688
-9.231656366826955e-05
-9.231656366826955e-05
-9.507228198672531e-05
-9.507228198672531e-05
-8.680512703135793e-05
-7.57822537575348e-05
-6.751509880216745e-05
-7.302653543907902e-05
-7.302653543907902e-05
-6.475938048371164e-05
-4.8225070572976926e-05
-3.4446478980697995e-05
-2.8935042343786426e-05
-2.8935042343786426e-05
-1.5156450751507488e-05
6.8892957961388014e-06
3.444647898069667e-05
5.373650720988717e-05
6.751509880216611e-05
8.68051270313566e-05
0.00011711802853437029
0.00015018664835583973
0.00017774383154039756
0.00019427814145113231
0.00021632388799877858
0.00024388107118333642
0.0002686825360494386
0.0002852168459601733
0.00029072828259708476
0.00029072828259708476
0.0002989954375524522
0.000315529747463187
0.000315529747463187
0.00030450687418936376
0.0002852168459601733
0.00027143825436789435
0.00026592681773098274
0.00023010247959105753
0.00020254529640649968
0.00018049954985885336
0.00016672095826657444
0.00015018664835583973
0.00012262946517128183
8.956084534981241e-05
6.475938048371032e-05
4.546935225451981e-05
3.169076066224089e-05
1.2400732433050376e-05
-9.64501411459592e-06
-2.6179324025330647e-05
-2.8935042343786426e-05
-3.169076066224221e-05
-4.2713633936065354e-05
-5.3736507209888505e-05
-6.475938048371164e-05
-6.200366216525588e-05
-5.9247943846800084e-05
-5.9247943846800084e-05
-7.302653543907902e-05
-8.129369039444639e-05
-8.404940871290214e-05
-7.85379720759906e-05
-7.85379720759906e-05
-8.129369039444639e-05
-8.129369039444639e-05
-7.57822537575348e-05
-6.751509880216745e-05
-5.9247943846800084e-05
-5.6492225528344285e-05
-6.475938048371164e-05
-6.200366216525588e-05
-3.720219729915378e-05
-9.64501411459592e-06
9.64501411459459e-06
1.5156450751506162e-05
1.2400732433050376e-05
2.066788738841773e-05
3.169076066224089e-05
2.8935042343785094e-05
1.2400732433050376e-05
4.133577477683014e-06
-4.133577477684346e-06
-2.6179324025330647e-05
-4.8225070572976926e-05
-6.475938048371164e-05
-7.85379720759906e-05
-8.129369039444639e-05
-7.57822537575348e-05
-7.302653543907902e-05
-7.85379720759906e-05
-8.404940871290214e-05
-8.680512703135793e-05
-7.57822537575348e-05
-7.027081712062322e-05
-7.57822537575348e-05
-8.129369039444639e-05
-8.404940871290214e-05
-7.57822537575348e-05
-6.200366216525588e-05
-3.720219729915378e-05
8.129369039444505e-05
0.0003733998321507585
0.001318611215381093
0.0015748930189974813
0.001423328511482413
0.0008887191577019906
0.00029623971923399637
-0.00012538518348973897
-0.0003155297474631883
-0.00029348400091554195
-0.00022459104295414727
-0.00018876670481422206
-0.00016672095826657574
-0.00015294236667429682
-0.000150186648355841
-0.000150186648355841
-0.00014467521171892948
-0.0001336523384451063
-0.0001226294651712832
-0.0001198737468528274
-0.00012538518348973897
-0.0001226294651712832
-0.00010885087357900426
-9.78280003051811e-05
-9.78280003051811e-05
-0.00010058371862363688
-0.00010058371862363688
-9.231656366826955e-05
-8.129369039444639e-05
-7.302653543907902e-05
-7.302653543907902e-05
-7.57822537575348e-05
-6.475938048371164e-05
-4.8225070572976926e-05
-3.720219729915378e-05
-2.8935042343786426e-05
-2.342360570687485e-05
-6.889295796140132e-06
1.5156450751506162e-05
3.720219729915245e-05
5.649222552834297e-05
6.751509880216611e-05
8.956084534981241e-05
0.0001253851834897376
0.0001556980849927513
0.00018049954985885336
0.00019978957808804387
0.00022459104295414594
0.0002549039444571596
0.0002824611276417174
0.0002989954375524522
0.00031001831082627527
0.000315529747463187
0.00032655262073701005
0.0003375754940108332
0.000340331212329289
0.0003293083390554659
0.000315529747463187
0.00030450687418936376
0.00029072828259708476
0.0002769496910048059
0.0002576596627756154
0.00023010247959105753
0.00020805673304341124
0.00019152242313267648
0.00017498811322194178
0.00015018664835583973
9.23165636682682e-05
7.853797207598924e-05
6.200366216525454e-05
3.444647898069667e-05
6.8892957961388014e-06
-1.240073243305171e-05
-2.066788738841907e-05
-2.342360570687485e-05
-3.4446478980697995e-05
-4.8225070572976926e-05
-5.6492225528344285e-05
-5.3736507209888505e-05
-5.098078889143272e-05
-5.9247943846800084e-05
-7.302653543907902e-05
-8.129369039444639e-05
-7.85379720759906e-05
-7.302653543907902e-05
-7.302653543907902e-05
-7.85379720759906e-05
-8.404940871290214e-05
-8.129369039444639e-05
-7.027081712062322e-05
-6.200366216525588e-05
-6.200366216525588e-05
-6.475938048371164e-05
-6.200366216525588e-05
-4.5469352254521147e-05
-2.342360570687485e-05
-4.133577477684346e-06
4.133577477683014e-06
6.8892957961388014e-06
1.7912169069961946e-05
2.6179324025329308e-05
2.8935042343785094e-05
9.64501411459459e-06
-1.377859159228559e-06
4.133577477683014e-06
-6.889295796140132e-06
-3.4446478980697995e-05
-5.6492225528344285e-05
-7.027081712062322e-05
-7.302653543907902e-05
-6.751509880216745e-05
-6.751509880216745e-05
-7.57822537575348e-05
-8.404940871290214e-05
-8.680512703135793e-05
-8.129369039444639e-05
-7.57822537575348e-05
-8.129369039444639e-05
-8.680512703135793e-05
-8.680512703135793e-05
-8.404940871290214e-05
-7.57822537575348e-05
-7.027081712062322e-05
-1.5156450751507488e-05
0.0001832552681773092
0.0005800787060349425
0.0010595736934462493
0.0014150613565270462
0.0014481299763485153
0.0010623294117647053
0.0004808728465705341
-4.133577477684346e-06
-0.0003430869306477461
-0.0002686825360494398
-0.0002080567330434125
-0.0001777438315403989
-0.0001612095216296642
-0.0001584538033112084
-0.0001612095216296642
-0.0001584538033112084
-0.00014467521171892948
-0.0001364080567635621
-0.0001391637750820179
-0.00014467521171892948
-0.00014191949340047367
-0.00012814090180819475
-0.0001226294651712832
-0.0001198737468528274
-0.0001171180285343716
-0.00011160659189746003
-0.00010333943694209268
-9.507228198672531e-05
-9.507228198672531e-05
-9.78280003051811e-05
-9.507228198672531e-05
-8.404940871290214e-05
-6.751509880216745e-05
-5.9247943846800084e-05
-5.6492225528344285e-05
-4.8225070572976926e-05
-3.4446478980697995e-05
-1.5156450751507488e-05
4.133577477683014e-06
1.2400732433050376e-05
2.3423605706873515e-05
4.546935225451981e-05
7.30265354390777e-05
0.00010058371862363556
0.00012262946517128183
0.00013916377508201656
0.0001556980849927513
0.0001832552681773092
0.00020530101472495543
0.0002190796063172344
0.00022459104295414594
0.00023010247959105753
0.00024388107118333642
0.0002549039444571596
0.00025214822613870384
0.00023561391622796914
0.00022459104295414594
0.00021632388799877858
0.000210812451361867
0.00019978957808804387
0.00017774383154039756
0.00015018664835583973
0.00013365233844510492
0.0001253851834897376
0.00010885087357900291
8.129369039444505e-05
4.82250705729756e-05
2.8935042343785094e-05
9.64501411459459e-06
-4.133577477684346e-06
-2.6179324025330647e-05
-4.5469352254521147e-05
-6.200366216525588e-05
-6.751509880216745e-05
-8.129369039444639e-05
-9.78280003051811e-05
-0.00011160659189746003
-0.00011160659189746003
-0.00011160659189746003
-0.00011436231021591582
-0.0001226294651712832
-0.0001336523384451063
-0.00013089662012665053
-0.00012814090180819475
-0.00013089662012665053
-0.0001364080567635621
-0.0001391637750820179
-0.00012538518348973897
-0.00011160659189746003
-0.00010885087357900426
-0.00010885087357900426
-0.00011160659189746003
-0.00011160659189746003
-9.78280003051811e-05
-7.302653543907902e-05
-5.9247943846800084e-05
-5.6492225528344285e-05
-4.8225070572976926e-05
-3.720219729915378e-05
-2.6179324025330647e-05
-2.6179324025330647e-05
-3.995791561760957e-05
-5.3736507209888505e-05
-5.098078889143272e-05
-5.9247943846800084e-05
-8.680512703135793e-05
-0.00011160659189746003
-0.00012538518348973897
-0.00012538518348973897
-0.0001198737468528274
-0.0001198737468528274
-0.00013089662012665053
-0.0001364080567635621
-0.0001336523384451063
-0.00012538518348973897
-0.0001171180285343716
-0.0001226294651712832
-0.00012814090180819475
-0.00013089662012665053
-0.00012814090180819475
-0.0001198737468528274
-0.00011436231021591582
-8.404940871290214e-05
4.82250705729756e-05
0.000340331212329289
0.0007454218051422897
0.0010953980315861747
0.001224916792553597
0.0010099707637140451
0.0005525215228503846
0.00010333943694209132
-0.00021356816968032413
-0.0003430869306477461
-0.00030726259250782084
-0.00024388107118333775
-0.0002108124513618684
-0.00019427814145113364
-0.00019152242313267784
-0.00019703385976958942
-0.00018049954985885472
-0.00017223239490348733
-0.00017223239490348733
-0.0001777438315403989
-0.00017498811322194308
-0.0001612095216296642
-0.000150186648355841
-0.000150186648355841
-0.00015569808499275262
-0.00015569808499275262
-0.00014467521171892948
-0.0001364080567635621
-0.0001336523384451063
-0.0001391637750820179
-0.0001336523384451063
-0.0001226294651712832
-0.00010885087357900426
-0.00010058371862363688
-0.00010058371862363688
-9.78280003051811e-05
-8.680512703135793e-05
-7.027081712062322e-05
-5.9247943846800084e-05
-4.8225070572976926e-05
-3.720219729915378e-05
-1.7912169069963278e-05
9.64501411459459e-06
3.444647898069667e-05
5.373650720988717e-05
7.02708171206219e-05
8.68051270313566e-05
0.00011711802853437029
0.00014467521171892812
0.00015845380331120705
0.00016672095826657444
0.00017774383154039756
0.00019427814145113231
0.00020254529640649968
0.00019978957808804387
0.00018876670481422076
0.00018049954985885336
0.0001832552681773092
0.00018049954985885336
0.00016672095826657444
0.00014467521171892812
0.0001253851834897376
0.00011436231021591448
0.00010609515526054714
8.68051270313566e-05
6.475938048371032e-05
3.9957915617608246e-05
2.066788738841773e-05
9.64501411459459e-06
-9.64501411459592e-06
-2.8935042343786426e-05
-4.8225070572976926e-05
-6.475938048371164e-05
-7.302653543907902e-05
-7.85379720759906e-05
-8.956084534981374e-05
-0.00010333943694209268
-0.00011160659189746003
-0.00010609515526054846
-0.00010333943694209268
-0.00010885087357900426
-0.00013089662012665053
-0.00012814090180819475
-0.00012538518348973897
-0.00012814090180819475
-0.0001336523384451063
-0.0001336523384451063
-0.0001226294651712832
-0.00011160659189746003
-0.00010885087357900426
-0.00010885087357900426
-0.00010609515526054846
-0.00010609515526054846
-9.231656366826955e-05
-7.027081712062322e-05
-5.6492225528344285e-05
-5.098078889143272e-05
-4.8225070572976926e-05
-3.995791561760957e-05
-3.169076066224221e-05
-3.169076066224221e-05
-4.5469352254521147e-05
-5.6492225528344285e-05
-5.6492225528344285e-05
-7.027081712062322e-05
-0.00010058371862363688
-0.0001198737468528274
-0.00012814090180819475
-0.00012814090180819475
-0.00012814090180819475
-0.00013089662012665053
-0.0001364080567635621
-0.00014191949340047367
-0.0001364080567635621
-0.0001226294651712832
-0.0001171180285343716
-0.00012814090180819475
-0.0001336523384451063
-0.00013089662012665053
-0.00012814090180819475
-0.0001226294651712832
-0.00011160659189746003
-6.475938048371164e-05
8.68051270313566e-05
0.0003954455786984048
0.0007840018616006707
0.0010788637216754397
0.0011312223697260999
0.0008473833829251538
0.000392689860379949
-4.133577477684346e-06
-0.0002686825360494398
-0.0003458426489662019
-0.00028797256427863044
-0.00023285819790951464
-0.00020254529640650095
-0.00018876670481422206
-0.00018325526817731047
-0.00018601098649576628
-0.00018325526817731047
-0.00016947667658503157
-0.00016396523994811996
-0.00016672095826657574
-0.00016672095826657574
-0.00016396523994811996
-0.00015569808499275262
-0.00014743093003738526
-0.000150186648355841
-0.00015294236667429682
-0.00014743093003738526
-0.0001336523384451063
-0.00012814090180819475
-0.00012814090180819475
-0.00012814090180819475
-0.00011436231021591582
-0.00010058371862363688
-9.507228198672531e-05
-9.231656366826955e-05
-8.956084534981374e-05
-7.85379720759906e-05
-6.200366216525588e-05
-3.995791561760957e-05
-2.8935042343786426e-05
-1.7912169069963278e-05
1.3778591592272275e-06
3.169076066224089e-05
5.649222552834297e-05
7.30265354390777e-05
8.68051270313566e-05
0.00011160659189745871
0.00013640805676356078
0.0001556980849927513
0.00016672095826657444
0.00016672095826657444
0.000172232394903486
0.0001832552681773092
0.0001970338597695881
0.00020530101472495543
0.00020805673304341124
0.0002190796063172344
0.00023285819790951333
0.00024388107118333642
0.00024388107118333642
0.0002190796063172344
0.00019427814145113231
0.000172232394903486
0.0001556980849927513
0.00013089662012664922
0.00010058371862363556
7.30265354390777e-05
4.82250705729756e-05
2.3423605706873515e-05
-4.133577477684346e-06
-3.169076066224221e-05
-5.3736507209888505e-05
-6.200366216525588e-05
-6.751509880216745e-05
-7.027081712062322e-05
-8.129369039444639e-05
-9.507228198672531e-05
-0.00010333943694209268
-9.78280003051811e-05
-9.507228198672531e-05
-0.00010058371862363688
-0.00011160659189746003
-0.00011436231021591582
-0.00010885087357900426
-0.00010333943694209268
-0.00010333943694209268
-0.00011160659189746003
-0.0001198737468528274
1.3778591592272275e-06
0.000172232394903486
0.000456071381704432
0.0008776962844281674
0.0012745197222858006
0.0014398628213931478
0.0011615352712291134
0.0004340256351567857
-0.00029072828259708617
-0.0005800787060349438
-0.00047536140993362393
-0.0003210411841000998
-0.00023836963454642628
-0.00020530101472495681
-0.00018876670481422206
-0.00016947667658503157
-0.00015569808499275262
-0.000150186648355841
-0.00015294236667429682
-0.000150186648355841
-0.00014191949340047367
-0.0001336523384451063
-0.00013089662012665053
-0.0001336523384451063
-0.0001336523384451063
-0.00012814090180819475
-0.0001171180285343716
-0.00010885087357900426
-0.00010609515526054846
-0.00010885087357900426
-0.00010333943694209268
-8.404940871290214e-05
-7.027081712062322e-05
-6.751509880216745e-05
-5.9247943846800084e-05
-4.5469352254521147e-05
-2.6179324025330647e-05
-6.889295796140132e-06
9.64501411459459e-06
2.066788738841773e-05
3.720219729915245e-05
6.751509880216611e-05
9.782800030517979e-05
0.00011987374685282605
0.00014191949340047234
0.0001694766765850302
0.00019978957808804387
0.00023010247959105753
0.00025214822613870384
0.000263171099412527
0.00027970540932326175
0.00029623971923399637
0.000315529747463187
0.00032379690241855427
0.00032655262073701005
0.00032379690241855427
0.00032104118410009855
0.00032379690241855427
0.0003182854657816428
0.0002934840009155406
0.0002686825360494386
0.00024388107118333642
0.00022734676127260172
0.000210812451361867
0.0001832552681773092
0.00015018664835583973
0.00010058371862363556
8.129369039444505e-05
5.9247943846798756e-05
2.8935042343785094e-05
6.8892957961388014e-06
-6.889295796140132e-06
-1.5156450751507488e-05
-2.8935042343786426e-05
-4.2713633936065354e-05
-4.8225070572976926e-05
-5.098078889143272e-05
-4.5469352254521147e-05
-4.5469352254521147e-05
-5.098078889143272e-05
-5.6492225528344285e-05
-5.9247943846800084e-05
-5.098078889143272e-05
-4.5469352254521147e-05
-4.5469352254521147e-05
-5.098078889143272e-05
-5.098078889143272e-05
-4.2713633936065354e-05
-3.720219729915378e-05
-3.720219729915378e-05
-4.2713633936065354e-05
-4.8225070572976926e-05
-4.5469352254521147e-05
-3.720219729915378e-05
-3.4446478980697995e-05
-4.2713633936065354e-05
-4.8225070572976926e-05
-4.8225070572976926e-05
-4.5469352254521147e-05
-4.5469352254521147e-05
-5.3736507209888505e-05
-6.200366216525588e-05
-6.751509880216745e-05
-6.475938048371164e-05
-6.200366216525588e-05
-6.200366216525588e-05
-6.200366216525588e-05
-5.9247943846800084e-05
-5.098078889143272e-05
-4.2713633936065354e-05
-3.995791561760957e-05
-4.2713633936065354e-05
-3.995791561760957e-05
-2.342360570687485e-05
-4.133577477684346e-06
9.64501411459459e-06
9.64501411459459e-06
9.64501411459459e-06
1.2400732433050376e-05
1.7912169069961946e-05
4.133577477683014e-06
-1.7912169069963278e-05
-3.4446478980697995e-05
-4.2713633936065354e-05
-5.6492225528344285e-05
-7.302653543907902e-05
-9.231656366826955e-05
-0.00010609515526054846
-0.00011160659189746003
-0.00010885087357900426
-0.00010609515526054846
-0.0001171180285343716
-0.0001171180285343716
-0.00010885087357900426
-0.00010609515526054846
-0.00011160659189746003
-0.0001226294651712832
-0.00011436231021591582
-0.00010058371862363688
-4.2713633936065354e-05
0.00013640805676356078
0.0004918957198443572
0.000949344960708018
0.001337901243610284
0.0014811985961699847
0.001244206820782787
0.0007151089036392759
0.00017774383154039756
-0.00018601098649576628
-0.00031828546578164407
-0.00026592681773098404
-0.0002218353246356915
-0.00021356816968032413
-0.00020254529640650095
-0.00019152242313267784
-0.00018325526817731047
-0.00018601098649576628
-0.00019152242313267784
-0.00018601098649576628
-0.0001777438315403989
-0.00016672095826657574
-0.00016396523994811996
-0.00016947667658503157
-0.00016396523994811996
-0.00015294236667429682
-0.00014467521171892948
-0.00014191949340047367
-0.00014191949340047367
-0.00014467521171892948
-0.00013089662012665053
-0.0001171180285343716
-0.0001171180285343716
-0.0001171180285343716
-0.0001198737468528274
-0.00010885087357900426
-9.231656366826955e-05
-8.129369039444639e-05
-7.85379720759906e-05
-7.302653543907902e-05
-6.200366216525588e-05
-3.995791561760957e-05
-2.066788738841907e-05
-9.64501411459592e-06
-1.377859159228559e-06
1.5156450751506162e-05
4.271363393606403e-05
7.30265354390777e-05
9.23165636682682e-05
0.00010333943694209132
0.00011711802853437029
0.00013640805676356078
0.0001556980849927513
0.00016672095826657444
0.0001694766765850302
0.0001694766765850302
0.00017774383154039756
0.00018601098649576498
0.00018049954985885336
0.0001694766765850302
0.00016672095826657444
0.00016396523994811866
0.0001556980849927513
0.00013916377508201656
0.00011987374685282605
0.00010609515526054714
0.00010058371862363556
9.23165636682682e-05
7.30265354390777e-05
4.82250705729756e-05
3.169076066224089e-05
2.066788738841773e-05
6.8892957961388014e-06
-9.64501411459592e-06
-3.169076066224221e-05
-4.5469352254521147e-05
-5.3736507209888505e-05
-5.9247943846800084e-05
-6.200366216525588e-05
-7.302653543907902e-05
-8.404940871290214e-05
-8.680512703135793e-05
-8.680512703135793e-05
-8.680512703135793e-05
-9.507228198672531e-05
-0.00010333943694209268
-0.00010058371862363688
-9.507228198672531e-05
-9.231656366826955e-05
-0.00010058371862363688
-0.00011160659189746003
-0.00011436231021591582
-0.00010609515526054846
-9.507228198672531e-05
-9.231656366826955e-05
-9.78280003051811e-05
-9.231656366826955e-05
-8.129369039444639e-05
-6.751509880216745e-05
-6.751509880216745e-05
-6.751509880216745e-05
-5.098078889143272e-05
-2.342360570687485e-05
-1.377859159228559e-06
1.2400732433050376e-05
6.8892957961388014e-06
6.8892957961388014e-06
1.5156450751506162e-05
1.7912169069961946e-05
9.64501411459459e-06
-6.889295796140132e-06
-2.6179324025330647e-05
-5.098078889143272e-05
-6.751509880216745e-05
-7.302653543907902e-05
-8.129369039444639e-05
-9.231656366826955e-05
-9.231656366826955e-05
-8.404940871290214e-05
-8.129369039444639e-05
-8.680512703135793e-05
-8.956084534981374e-05
-8.129369039444639e-05
-7.302653543907902e-05
-7.57822537575348e-05
-8.404940871290214e-05
-8.680512703135793e-05
-7.027081712062322e-05
1.5156450751506162e-05
0.0002493925078202481
0.0006655059739070718
0.0011615352712291134
0.0015280458075837332
0.001558358709086747
0.0011532681162737465
0.0005304757763027383
9.64501411459459e-06
-0.00029348400091554195
-0.0003403312123292903
-0.00025765966277561676
-0.0002080567330434125
-0.00019427814145113364
-0.0001777438315403989
-0.0001612095216296642
-0.000150186648355841
-0.000150186648355841
-0.0001584538033112084
-0.00015294236667429682
-0.0001391637750820179
-0.00012814090180819475
-0.00012814090180819475
-0.0001336523384451063
-0.0001336523384451063
-0.0001226294651712832
-0.00010885087357900426
-0.00010058371862363688
-0.00010058371862363688
-0.00010058371862363688
-9.231656366826955e-05
-7.57822537575348e-05
-6.475938048371164e-05
-6.475938048371164e-05
-6.475938048371164e-05
-5.098078889143272e-05
-3.4446478980697995e-05
-2.066788738841907e-05
-1.240073243305171e-05
-6.889295796140132e-06
6.8892957961388014e-06
3.444647898069667e-05
5.9247943846798756e-05
7.853797207598924e-05
9.507228198672396e-05
0.00011436231021591448
0.00014743093003738393
0.00018049954985885336
0.00020530101472495543
0.0002190796063172344
0.00023285819790951333
0.0002576596627756154
0.0002852168459601733
0.0002934840009155406
0.0002934840009155406
0.00029072828259708476
0.00029623971923399637
0.0002989954375524522
0.0002879725642786291
0.00024663678950179223
0.00023010247959105753
0.0002190796063172344
0.00020254529640649968
0.00017498811322194178
0.00015018664835583973
0.00013089662012664922
0.00011711802853437029
9.782800030517979e-05
7.30265354390777e-05
4.82250705729756e-05
2.6179324025329308e-05
1.2400732433050376e-05
1.3778591592272275e-06
-1.5156450751507488e-05
-3.995791561760957e-05
-5.3736507209888505e-05
-5.3736507209888505e-05
-5.3736507209888505e-05
-6.200366216525588e-05
-7.57822537575348e-05
-8.404940871290214e-05
-8.404940871290214e-05
-7.85379720759906e-05
-7.85379720759906e-05
-8.956084534981374e-05
-9.78280003051811e-05
-8.956084534981374e-05
-8.129369039444639e-05
-8.129369039444639e-05
-8.680512703135793e-05
-9.231656366826955e-05
-8.680512703135793e-05
-7.302653543907902e-05
-6.200366216525588e-05
-6.200366216525588e-05
-7.027081712062322e-05
-7.57822537575348e-05
-6.475938048371164e-05
-4.2713633936065354e-05
-2.342360570687485e-05
-1.7912169069963278e-05
-9.64501411459592e-06
4.133577477683014e-06
1.5156450751506162e-05
2.066788738841773e-05
1.5156450751506162e-05
4.133577477683014e-06
-4.133577477684346e-06
-4.133577477684346e-06
-1.7912169069963278e-05
-5.3736507209888505e-05
-7.302653543907902e-05
-7.027081712062322e-05
-5.9247943846800084e-05
-6.475938048371164e-05
-7.302653543907902e-05
-7.85379720759906e-05
-8.956084534981374e-05
-8.129369039444639e-05
-7.302653543907902e-05
-7.57822537575348e-05
-8.404940871290214e-05
-8.404940871290214e-05
-7.57822537575348e-05
-5.9247943846800084e-05
-2.6179324025330647e-05
0.00011987374685282605
0.0004643385366597993
0.0009631235523002968
0.0014067942015716782
0.0015996944838635836
0.0013709698634317533
0.0008143147631036844
0.00024112535286488067
-0.00015569808499275262
-0.0003155297474631883
-0.00027143825436789566
-0.00020254529640650095
-0.00016947667658503157
-0.00015569808499275262
-0.000150186648355841
-0.00015294236667429682
-0.00015294236667429682
-0.0001391637750820179
-0.00012538518348973897
-0.00012538518348973897
-0.00013089662012665053
-0.00013089662012665053
-0.0001198737468528274
-0.00010885087357900426
-0.00010609515526054846
-0.00010885087357900426
-0.00010609515526054846
-9.507228198672531e-05
-8.129369039444639e-05
-7.57822537575348e-05
-7.57822537575348e-05
-7.85379720759906e-05
-7.027081712062322e-05
-5.3736507209888505e-05
-4.2713633936065354e-05
-3.995791561760957e-05
-3.4446478980697995e-05
-2.342360570687485e-05
-4.133577477684346e-06
1.2400732433050376e-05
2.3423605706873515e-05
3.444647898069667e-05
5.9247943846798756e-05
9.507228198672396e-05
0.0001253851834897376
0.00014743093003738393
0.0001694766765850302
0.00019427814145113231
0.00022459104295414594
0.00025214822613870384
0.0002769496910048059
0.0002879725642786291
0.00029623971923399637
0.0003127740291447311
0.00032655262073701005
0.00032655262073701005
0.000315529747463187
0.0003072625925078196
0.0002989954375524522
0.00029623971923399637
0.0002852168459601733
0.000263171099412527
0.0002383696345464249
0.000210812451361867
0.0001832552681773092
0.00016120952162966288
0.00013089662012664922
0.00010609515526054714
8.956084534981241e-05
7.30265354390777e-05
4.82250705729756e-05
2.066788738841773e-05
-1.377859159228559e-06
-1.240073243305171e-05
-1.7912169069963278e-05
-2.8935042343786426e-05
-4.2713633936065354e-05
-5.3736507209888505e-05
-5.6492225528344285e-05
-5.6492225528344285e-05
-5.9247943846800084e-05
-6.751509880216745e-05
-8.129369039444639e-05
-8.129369039444639e-05
-7.57822537575348e-05
-7.57822537575348e-05
-8.680512703135793e-05
-9.78280003051811e-05
-9.507228198672531e-05
-8.129369039444639e-05
-7.027081712062322e-05
-7.302653543907902e-05
-7.57822537575348e-05
-7.027081712062322e-05
-5.9247943846800084e-05
-5.098078889143272e-05
-4.2713633936065354e-05
-3.169076066224221e-05
-1.5156450751507488e-05
4.133577477683014e-06
2.066788738841773e-05
2.3423605706873515e-05
1.7912169069961946e-05
1.5156450751506162e-05
1.2400732433050376e-05
1.2400732433050376e-05
9.64501411459459e-06
-9.64501411459592e-06
-4.2713633936065354e-05
-5.9247943846800084e-05
-5.9247943846800084e-05
-5.9247943846800084e-05
-7.027081712062322e-05
-7.85379720759906e-05
-8.129369039444639e-05
-7.57822537575348e-05
-7.027081712062322e-05
-7.302653543907902e-05
-8.129369039444639e-05
-7.85379720759906e-05
-7.027081712062322e-05
-6.475938048371164e-05
-6.751509880216745e-05
-7.027081712062322e-05
-5.6492225528344285e-05
5.9247943846798756e-05
0.00035135408560311223
0.0008198261997405958
0.0012965654688334468
0.0014729314412146172
0.0009658792706187528
0.00035410980392156795
-0.00010885087357900426
-0.0003375754940108345
-0.00031828546578164407
-0.00022734676127260308
-0.0001777438315403989
-0.00016672095826657574
-0.0001612095216296642
-0.00015294236667429682
-0.0001364080567635621
-0.00012538518348973897
-0.00012814090180819475
-0.00013089662012665053
-0.00013089662012665053
-0.0001198737468528274
-0.00010885087357900426
-0.00010609515526054846
-0.00010885087357900426
-0.00010609515526054846
-9.78280003051811e-05
-8.404940871290214e-05
-7.85379720759906e-05
-8.129369039444639e-05
-8.404940871290214e-05
-7.57822537575348e-05
-6.200366216525588e-05
-5.098078889143272e-05
-4.8225070572976926e-05
-4.5469352254521147e-05
-3.4446478980697995e-05
-1.5156450751507488e-05
4.133577477683014e-06
1.5156450751506162e-05
2.3423605706873515e-05
3.9957915617608246e-05
6.751509880216611e-05
0.00010058371862363556
0.0001253851834897376
0.00013916377508201656
0.00016396523994811866
0.00019978957808804387
0.00023561391622796914
0.0002549039444571596
0.0002686825360494386
0.0002824611276417174
0.000301751155870908
0.000315529747463187
0.00032104118410009855
0.0003182854657816428
0.00031001831082627527
0.00031001831082627527
0.0003127740291447311
0.000301751155870908
0.0002769496910048059
0.00025214822613870384
0.00023285819790951333
0.0002218353246356902
0.00020530101472495543
0.00018049954985885336
0.00015294236667429551
0.00012814090180819342
0.00011160659189745871
9.23165636682682e-05
3.720219729915245e-05
1.2400732433050376e-05
1.3778591592272275e-06
-4.133577477684346e-06
-1.7912169069963278e-05
-3.720219729915378e-05
-4.8225070572976926e-05
-5.098078889143272e-05
-5.098078889143272e-05
-5.3736507209888505e-05
-6.475938048371164e-05
-7.57822537575348e-05
-7.57822537575348e-05
-7.027081712062322e-05
-7.027081712062322e-05
-7.85379720759906e-05
-9.231656366826955e-05
-9.231656366826955e-05
-8.404940871290214e-05
-7.57822537575348e-05
-7.57822537575348e-05
-7.85379720759906e-05
-7.57822537575348e-05
-6.475938048371164e-05
-6.200366216525588e-05
-5.9247943846800084e-05
-5.098078889143272e-05
-3.169076066224221e-05
-6.889295796140132e-06
9.64501411459459e-06
1.5156450751506162e-05
1.2400732433050376e-05
1.2400732433050376e-05
9.64501411459459e-06
9.64501411459459e-06
6.8892957961388014e-06
-6.889295796140132e-06
-3.169076066224221e-05
-4.8225070572976926e-05
-5.3736507209888505e-05
-5.6492225528344285e-05
-6.475938048371164e-05
-7.57822537575348e-05
-7.85379720759906e-05
-7.302653543907902e-05
-7.027081712062322e-05
-7.302653543907902e-05
-8.129369039444639e-05
-8.404940871290214e-05
-7.57822537575348e-05
-6.751509880216745e-05
-7.302653543907902e-05
-8.129369039444639e-05
-7.85379720759906e-05
-2.342360570687485e-05
0.0001556980849927513
0.0005139414663920035
0.0010017036087586776
0.0014288399481193247
0.0015886716105897604
0.001321366933699549
0.0007316432135500107
0.00015845380331120705
-0.0002190796063172357
-0.0003320640573739229
-0.00019152242313267784
-0.00017223239490348733
-0.00016947667658503157
-0.0001584538033112084
-0.00014467521171892948
-0.0001391637750820179
-0.0001391637750820179
-0.0001391637750820179
-0.0001364080567635621
-0.0001226294651712832
-0.00011160659189746003
-0.00011160659189746003
-0.00011436231021591582
-0.00011436231021591582
-0.00010333943694209268
-9.231656366826955e-05
-8.956084534981374e-05
-9.507228198672531e-05
-9.507228198672531e-05
-8.404940871290214e-05
-6.751509880216745e-05
-6.200366216525588e-05
-6.475938048371164e-05
-5.9247943846800084e-05
-4.8225070572976926e-05
-2.6179324025330647e-05
-9.64501411459592e-06
-4.133577477684346e-06
4.133577477683014e-06
2.066788738841773e-05
4.82250705729756e-05
7.578225375753347e-05
9.782800030517979e-05
0.00011436231021591448
0.00013916377508201656
0.000172232394903486
0.000210812451361867
0.00023561391622796914
0.00024663678950179223
0.000263171099412527
0.0002824611276417174
0.0003072625925078196
0.00032104118410009855
0.0003182854657816428
0.0003182854657816428
0.00032104118410009855
0.00032379690241855427
0.0003127740291447311
0.0002934840009155406
0.00027143825436789435
0.0002549039444571596
0.00024663678950179223
0.00023010247959105753
0.00019978957808804387
0.0001694766765850302
0.00014191949340047234
0.00012814090180819342
0.00010885087357900291
7.853797207598924e-05
4.546935225451981e-05
2.3423605706873515e-05
1.2400732433050376e-05
6.8892957961388014e-06
-9.64501411459592e-06
-3.169076066224221e-05
-5.3736507209888505e-05
-5.3736507209888505e-05
-5.9247943846800084e-05
-7.027081712062322e-05
-8.404940871290214e-05
-8.129369039444639e-05
-7.85379720759906e-05
-8.129369039444639e-05
-8.956084534981374e-05
-0.00010058371862363688
-0.00010058371862363688
-8.956084534981374e-05
-8.404940871290214e-05
-8.680512703135793e-05
-8.956084534981374e-05
-8.680512703135793e-05
-7.57822537575348e-05
-6.751509880216745e-05
-6.475938048371164e-05
-5.9247943846800084e-05
-4.5469352254521147e-05
-1.7912169069963278e-05
-1.377859159228559e-06
1.3778591592272275e-06
-4.133577477684346e-06
-4.133577477684346e-06
1.3778591592272275e-06
1.3778591592272275e-06
-4.133577477684346e-06
-1.5156450751507488e-05
-4.8225070572976926e-05
-7.57822537575348e-05
-7.85379720759906e-05
-8.404940871290214e-05
-9.231656366826955e-05
-0.00010333943694209268
-0.00010058371862363688
-9.507228198672531e-05
-8.956084534981374e-05
-9.507228198672531e-05
-0.00010333943694209268
-9.78280003051811e-05
-8.956084534981374e-05
-8.680512703135793e-05
-9.507228198672531e-05
-9.78280003051811e-05
-9.507228198672531e-05
-4.5469352254521147e-05
0.0001253851834897376
0.0004726056916151668
0.0009410778057526506
0.001335145525291828
0.0014674200045777057
0.0011890924544136717
0.0006131473258564118
7.02708171206219e-05
-0.0002824611276417188
-0.0003816669871061273
-0.00030175115587090934
-0.00022734676127260308
-0.00020254529640650095
-0.00019427814145113364
-0.00018325526817731047
-0.00017223239490348733
-0.00016396523994811996
-0.00016396523994811996
-0.00016672095826657574
-0.000150186648355841
-0.0001364080567635621
-0.0001391637750820179
-0.00014191949340047367
-0.00014191949340047367
-0.0001336523384451063
-0.0001226294651712832
-0.0001198737468528274
-0.0001226294651712832
-0.0001226294651712832
-0.00011160659189746003
-9.78280003051811e-05
-8.956084534981374e-05
-9.231656366826955e-05
-9.231656366826955e-05
-8.129369039444639e-05
-5.9247943846800084e-05
-4.2713633936065354e-05
-3.169076066224221e-05
-2.6179324025330647e-05
-1.240073243305171e-05
1.5156450751506162e-05
4.546935225451981e-05
6.475938048371032e-05
7.853797207598924e-05
0.00010058371862363556
0.00013365233844510492
0.00016672095826657444
0.00018601098649576498
0.0001970338597695881
0.000210812451361867
0.00023010247959105753
0.0002549039444571596
0.0002549039444571596
0.0002493925078202481
0.00024112535286488067
0.00024663678950179223
0.00025214822613870384
0.00024388107118333642
0.00022459104295414594
0.0001970338597695881
0.00018049954985885336
0.0001694766765850302
0.00015018664835583973
0.00012262946517128183
9.782800030517979e-05
7.30265354390777e-05
5.649222552834297e-05
3.9957915617608246e-05
9.64501411459459e-06
-1.7912169069963278e-05
-3.720219729915378e-05
-4.5469352254521147e-05
-5.3736507209888505e-05
-6.751509880216745e-05
-8.680512703135793e-05
-9.78280003051811e-05
-0.00010058371862363688
-9.78280003051811e-05
-0.00010609515526054846
-0.00011436231021591582
-0.0001226294651712832
-0.0001226294651712832
-0.0001171180285343716
-0.00012538518348973897
-0.0001336523384451063
-0.00013089662012665053
-0.0001171180285343716
-0.00010885087357900426
-0.00011160659189746003
-0.0001171180285343716
-0.0001198737468528274
-0.00011160659189746003
-0.00010609515526054846
-0.00010333943694209268
-9.231656366826955e-05
-7.57822537575348e-05
-5.6492225528344285e-05
-4.5469352254521147e-05
-4.5469352254521147e-05
-4.8225070572976926e-05
-5.098078889143272e-05
-4.8225070572976926e-05
-4.8225070572976926e-05
-5.098078889143272e-05
-6.751509880216745e-05
-0.00010058371862363688
-0.0001171180285343716
-0.00011436231021591582
-0.0001171180285343716
-0.00012538518348973897
-0.0001336523384451063
-0.0001336523384451063
-0.00012538518348973897
-0.0001226294651712832
-0.00012814090180819475
-0.0001391637750820179
-0.0001391637750820179
-0.00013089662012665053
-0.00012538518348973897
-0.0001336523384451063
-0.0001391637750820179
-0.00012814090180819475
-6.751509880216745e-05
9.507228198672396e-05
0.0004064684519722279
0.0008005361715114055
0.0011229552147707324
0.0012111382009613175
0.0009576121156633854
0.0004726056916151668
2.066788738841773e-05
-0.00027419397268635144
-0.00035410980392156926
-0.00029072828259708617
-0.00023285819790951464
-0.0002190796063172357
-0.00021356816968032413
-0.00020530101472495681
-0.00019152242313267784
-0.00018601098649576628
-0.00019152242313267784
-0.00019427814145113364
-0.00019427814145113364
-0.00018049954985885472
-0.00016947667658503157
-0.00016672095826657574
-0.00017223239490348733
-0.00016947667658503157
-0.00014467521171892948
-0.00014467521171892948
-0.000150186648355841
-0.000150186648355841
-0.00014191949340047367
-0.00012814090180819475
-0.0001226294651712832
-0.00012538518348973897
-0.0001226294651712832
-0.00011160659189746003
-9.507228198672531e-05
-8.129369039444639e-05
-7.027081712062322e-05
-6.475938048371164e-05
-5.098078889143272e-05
-2.6179324025330647e-05
-4.133577477684346e-06
1.2400732433050376e-05
2.6179324025329308e-05
5.098078889143139e-05
8.129369039444505e-05
0.00010885087357900291
0.00012814090180819342
0.00013640805676356078
0.00015018664835583973
0.000172232394903486
0.00019152242313267648
0.0001970338597695881
0.00019427814145113231
0.00019152242313267648
0.0001970338597695881
0.00019978957808804387
0.0001970338597695881
0.00017774383154039756
0.00015845380331120705
0.00014191949340047234
0.00013365233844510492
0.00011711802853437029
9.23165636682682e-05
6.200366216525454e-05
4.546935225451981e-05
3.169076066224089e-05
1.7912169069961946e-05
-6.889295796140132e-06
-3.4446478980697995e-05
-5.098078889143272e-05
-5.9247943846800084e-05
-6.475938048371164e-05
-8.129369039444639e-05
-0.00010058371862363688
-0.00010885087357900426
-0.00010885087357900426
-0.00010609515526054846
-0.00011160659189746003
-0.0001226294651712832
-0.00012814090180819475
-0.00012538518348973897
-0.0001226294651712832
-0.00012538518348973897
-0.0001364080567635621
-0.00014191949340047367
-0.0001364080567635621
-0.00012538518348973897
-0.00011436231021591582
-0.00011436231021591582
-0.00011160659189746003
-0.00010333943694209268
-9.78280003051811e-05
-9.507228198672531e-05
-8.680512703135793e-05
-7.57822537575348e-05
-5.6492225528344285e-05
-4.5469352254521147e-05
-3.995791561760957e-05
-4.5469352254521147e-05
-4.5469352254521147e-05
-4.8225070572976926e-05
-4.8225070572976926e-05
-5.098078889143272e-05
-7.027081712062322e-05
-0.00010058371862363688
-0.00011436231021591582
-0.00011160659189746003
-0.0001171180285343716
-0.00012538518348973897
-0.00012814090180819475
-0.00012814090180819475
-0.0001226294651712832
-0.0001198737468528274
-0.00012538518348973897
-0.0001336523384451063
-0.00013089662012665053
-0.0001226294651712832
-0.0001226294651712832
-0.00012814090180819475
-0.0001336523384451063
-0.00011436231021591582
-2.066788738841907e-05
0.00019427814145113231
0.0005359872129396498
0.0008942305943389022
0.0011201994964522765
0.0010650851300831607
0.000701330312046997
0.00023561391622796914
-0.0001336523384451063
-0.0003320640573739229
-0.0003293083390554673
-0.0002521482261387052
-0.0002108124513618684
-0.0001997895780880452
-0.0001997895780880452
-0.00018876670481422206
-0.00017498811322194308
-0.00017223239490348733
-0.0001777438315403989
-0.00017498811322194308
-0.00016947667658503157
-0.00015569808499275262
-0.00014743093003738526
-0.000150186648355841
-0.00015294236667429682
-0.00015294236667429682
-0.00014191949340047367
-0.0001336523384451063
-0.0001336523384451063
-0.0001364080567635621
-0.0001336523384451063
-0.0001198737468528274
-0.00010609515526054846
-9.78280003051811e-05
-9.507228198672531e-05
-8.404940871290214e-05
-7.027081712062322e-05
-5.9247943846800084e-05
-5.3736507209888505e-05
-4.5469352254521147e-05
-2.6179324025330647e-05
4.133577477683014e-06
2.6179324025329308e-05
4.271363393606403e-05
5.9247943846798756e-05
8.404940871290084e-05
0.00011436231021591448
0.00014191949340047234
0.0001556980849927513
0.00016672095826657444
0.00017774383154039756
0.0001970338597695881
0.0002135681696803228
0.00021632388799877858
0.000210812451361867
0.00020805673304341124
0.000210812451361867
0.0002135681696803228
0.00020530101472495543
0.00018601098649576498
0.00016396523994811866
0.00015294236667429551
0.00014191949340047234
0.0001253851834897376
0.00010333943694209132
7.853797207598924e-05
6.200366216525454e-05
5.098078889143139e-05
3.169076066224089e-05
6.8892957961388014e-06
-1.5156450751507488e-05
-2.8935042343786426e-05
-3.4446478980697995e-05
-3.995791561760957e-05
-5.3736507209888505e-05
-7.027081712062322e-05
-7.57822537575348e-05
-7.85379720759906e-05
-7.57822537575348e-05
-8.129369039444639e-05
-9.507228198672531e-05
-0.00010058371862363688
-9.78280003051811e-05
-9.507228198672531e-05
-9.78280003051811e-05
-0.00010609515526054846
-0.00011160659189746003
-0.00010609515526054846
-9.507228198672531e-05
-8.956084534981374e-05
-9.231656366826955e-05
-9.507228198672531e-05
-8.956084534981374e-05
-7.57822537575348e-05
-7.027081712062322e-05
-6.475938048371164e-05
-5.6492225528344285e-05
-3.995791561760957e-05
-2.066788738841907e-05
-1.240073243305171e-05
-1.7912169069963278e-05
-1.7912169069963278e-05
-1.5156450751507488e-05
-1.5156450751507488e-05
-1.7912169069963278e-05
-3.720219729915378e-05
-6.751509880216745e-05
-8.129369039444639e-05
-8.129369039444639e-05
-8.404940871290214e-05
-9.231656366826955e-05
-0.00010058371862363688
-9.78280003051811e-05
-9.231656366826955e-05
-8.680512703135793e-05
-9.231656366826955e-05
-9.78280003051811e-05
-9.231656366826955e-05
-8.129369039444639e-05
-8.129369039444639e-05
-8.956084534981374e-05
-9.507228198672531e-05
-7.85379720759906e-05
9.64501411459459e-06
0.00023285819790951333
0.0006131473258564118
0.0010347722285801472
0.001321366933699549
0.0012993211871519031
0.0009162763408865484
0.00038717842374303736
-3.995791561760957e-05
-0.0002852168459601746
-0.00030175115587090934
-0.00022459104295414727
-0.0001777438315403989
-0.00017223239490348733
-0.00016672095826657574
-0.0001584538033112084
-0.00014467521171892948
-0.0001391637750820179
-0.0001364080567635621
-0.0001391637750820179
-0.0001364080567635621
-0.0001226294651712832
-0.00011160659189746003
-0.00010885087357900426
-0.00011436231021591582
-0.00011160659189746003
-9.507228198672531e-05
-8.129369039444639e-05
-8.129369039444639e-05
-8.129369039444639e-05
-7.85379720759906e-05
-6.751509880216745e-05
-5.3736507209888505e-05
-4.8225070572976926e-05
-4.8225070572976926e-05
-4.5469352254521147e-05
-3.4446478980697995e-05
-1.240073243305171e-05
1.3778591592272275e-06
4.133577477683014e-06
1.5156450751506162e-05
6.200366216525454e-05
8.404940871290084e-05
0.00010333943694209132
0.00011987374685282605
0.00014743093003738393
0.0001832552681773092
0.000210812451361867
0.00023285819790951333
0.00024663678950179223
0.00026592681773098274
0.00029072828259708476
0.00031001831082627527
0.000315529747463187
0.00031001831082627527
0.00030450687418936376
0.00031001831082627527
0.000315529747463187
0.00030450687418936376
0.00027970540932326175
0.0002576596627756154
0.0002493925078202481
0.0002383696345464249
0.0002218353246356902
0.0001970338597695881
0.000172232394903486
0.00015294236667429551
0.00013916377508201656
0.00012262946517128183
9.507228198672396e-05
6.475938048371032e-05
4.546935225451981e-05
3.444647898069667e-05
2.3423605706873515e-05
9.64501411459459e-06
-6.889295796140132e-06
-1.7912169069963278e-05
-2.066788738841907e-05
-2.066788738841907e-05
-2.342360570687485e-05
-3.720219729915378e-05
-4.5469352254521147e-05
-3.995791561760957e-05
-3.4446478980697995e-05
-4.5469352254521147e-05
-5.9247943846800084e-05
-6.475938048371164e-05
-5.6492225528344285e-05
-4.2713633936065354e-05
-3.4446478980697995e-05
-3.720219729915378e-05
-4.2713633936065354e-05
-3.4446478980697995e-05
-2.066788738841907e-05
-2.066788738841907e-05
-2.066788738841907e-05
-9.64501411459592e-06
9.64501411459459e-06
3.169076066224089e-05
3.9957915617608246e-05
3.9957915617608246e-05
3.444647898069667e-05
3.444647898069667e-05
3.720219729915245e-05
3.720219729915245e-05
3.444647898069667e-05
-9.64501411459592e-06
-2.342360570687485e-05
-2.6179324025330647e-05
-2.8935042343786426e-05
-3.720219729915378e-05
-4.5469352254521147e-05
-3.995791561760957e-05
-3.169076066224221e-05
-2.8935042343786426e-05
-3.4446478980697995e-05
-3.995791561760957e-05
-3.995791561760957e-05
-2.6179324025330647e-05
-2.6179324025330647e-05
-4.2713633936065354e-05
-4.8225070572976926e-05
-3.995791561760957e-05
4.546935225451981e-05
0.0002741939726863501
0.000679284565499351
0.0011587795529106576
0.0015060000610360867
0.0015225343709468217
0.0011174437781338207
0.0005166971847104594
1.5156450751506162e-05
-0.00027419397268635144
-0.0002989954375524536
-0.0002080567330434125
-0.00014743093003738526
-0.00013089662012665053
-0.00012814090180819475
-0.00011436231021591582
-9.507228198672531e-05
-8.404940871290214e-05
-8.956084534981374e-05
-9.231656366826955e-05
-8.680512703135793e-05
-6.751509880216745e-05
-5.9247943846800084e-05
-6.475938048371164e-05
-6.751509880216745e-05
-6.475938048371164e-05
-5.098078889143272e-05
-4.2713633936065354e-05
-4.5469352254521147e-05
-5.098078889143272e-05
-4.8225070572976926e-05
-3.4446478980697995e-05
-1.7912169069963278e-05
-1.240073243305171e-05
-1.5156450751507488e-05
-1.240073243305171e-05
-1.377859159228559e-06
1.7912169069961946e-05
2.6179324025329308e-05
3.169076066224089e-05
4.546935225451981e-05
7.02708171206219e-05
0.00010333943694209132
0.00012814090180819342
0.00015018664835583973
0.0001694766765850302
0.0001970338597695881
0.00023561391622796914
0.00029072828259708476
0.00030450687418936376
0.00032104118410009855
0.0003430869306477448
0.0003596212405584795
0.00036788839551384685
0.000365132677195391
0.000365132677195391
0.000365132677195391
0.000365132677195391
0.00035135408560311223
0.00032379690241855427
0.00030450687418936376
0.0002934840009155406
0.0002769496910048059
0.0002576596627756154
0.00022459104295414594
0.00019427814145113231
0.00017498811322194178
0.00015845380331120705
0.00013640805676356078
0.00010609515526054714
7.853797207598924e-05
6.200366216525454e-05
5.098078889143139e-05
4.271363393606403e-05
2.6179324025329308e-05
6.8892957961388014e-06
-1.377859159228559e-06
4.133577477683014e-06
1.3778591592272275e-06
-4.133577477684346e-06
-1.5156450751507488e-05
-2.066788738841907e-05
-2.066788738841907e-05
-1.5156450751507488e-05
-1.7912169069963278e-05
-3.169076066224221e-05
-4.2713633936065354e-05
-3.720219729915378e-05
-2.8935042343786426e-05
-2.6179324025330647e-05
-2.8935042343786426e-05
-3.169076066224221e-05
-2.6179324025330647e-05
-9.64501411459592e-06
-1.377859159228559e-06
-6.889295796140132e-06
-9.64501411459592e-06
6.8892957961388014e-06
3.720219729915245e-05
5.649222552834297e-05
6.200366216525454e-05
5.649222552834297e-05
6.200366216525454e-05
7.578225375753347e-05
7.853797207598924e-05
7.02708171206219e-05
5.9247943846798756e-05
4.546935225451981e-05
2.6179324025329308e-05
4.133577477683014e-06
-4.133577477684346e-06
-1.5156450751507488e-05
-2.6179324025330647e-05
-9.64501411459592e-06
-4.133577477684346e-06
-1.240073243305171e-05
-2.6179324025330647e-05
-2.066788738841907e-05
-6.889295796140132e-06
-1.377859159228559e-06
-9.64501411459592e-06
-2.342360570687485e-05
-2.066788738841907e-05
1.3778591592272275e-06
8.129369039444505e-05
0.00029072828259708476
0.000687551720454718
0.0011863367360952157
0.0015776487373159373
0.0016327631036850527
0.001244206820782787
0.0006159030441748677
8.68051270313566e-05
-0.0002080567330434125
-0.00024939250782024937
-0.00017223239490348733
-0.00012538518348973897
-0.00010885087357900426
-9.231656366826955e-05
-7.85379720759906e-05
-7.027081712062322e-05
-6.751509880216745e-05
-6.751509880216745e-05
-6.475938048371164e-05
-5.098078889143272e-05
-4.5469352254521147e-05
-5.3736507209888505e-05
-5.9247943846800084e-05
-5.098078889143272e-05
-3.4446478980697995e-05
-2.342360570687485e-05
-2.8935042343786426e-05
-3.4446478980697995e-05
-2.8935042343786426e-05
-1.7912169069963278e-05
-1.377859159228559e-06
4.133577477683014e-06
1.3778591592272275e-06
6.8892957961388014e-06
2.066788738841773e-05
3.444647898069667e-05
4.546935225451981e-05
5.098078889143139e-05
5.649222552834297e-05
7.578225375753347e-05
0.00010609515526054714
0.00013089662012664922
0.00014743093003738393
0.00016672095826657444
0.00019427814145113231
0.00022459104295414594
0.0002549039444571596
0.0002769496910048059
0.00029623971923399637
0.0003182854657816428
0.00034584264896620056
0.00036788839551384685
0.0003733998321507585
0.00037891126878767
0.00038993414206149314
0.0003954455786984048
0.00038993414206149314
0.00036788839551384685
0.00035135408560311223
0.0003430869306477448
0.00033206405737392166
0.0003127740291447311
0.0002824611276417174
0.0002549039444571596
0.00024112535286488067
0.0002218353246356902
0.0001970338597695881
0.00016672095826657444
0.00013365233844510492
0.00011436231021591448
0.00010058371862363556
8.956084534981241e-05
7.02708171206219e-05
4.546935225451981e-05
3.169076066224089e-05
2.8935042343785094e-05
2.6179324025329308e-05
1.2400732433050376e-05
-1.377859159228559e-06
-9.64501411459592e-06
-6.889295796140132e-06
-1.377859159228559e-06
-4.133577477684346e-06
-1.5156450751507488e-05
-2.6179324025330647e-05
-2.6179324025330647e-05
-2.066788738841907e-05
-2.342360570687485e-05
-2.8935042343786426e-05
-3.169076066224221e-05
-2.066788738841907e-05
-9.64501411459592e-06
1.3778591592272275e-06
1.3778591592272275e-06
-1.377859159228559e-06
6.8892957961388014e-06
2.8935042343785094e-05
5.649222552834297e-05
6.475938048371032e-05
6.475938048371032e-05
7.02708171206219e-05
8.68051270313566e-05
9.782800030517979e-05
9.23165636682682e-05
7.30265354390777e-05
6.475938048371032e-05
7.02708171206219e-05
5.9247943846798756e-05
2.6179324025329308e-05
4.133577477683014e-06
-4.133577477684346e-06
-1.377859159228559e-06
6.8892957961388014e-06
1.3778591592272275e-06
-9.64501411459592e-06
-1.5156450751507488e-05
-1.240073243305171e-05
-1.377859159228559e-06
-1.377859159228559e-06
-1.7912169069963278e-05
-2.066788738841907e-05
-9.64501411459592e-06
6.8892957961388014e-06
3.720219729915245e-05
0.00016396523994811866
0.0004808728465705341
0.000982413580529487
0.001453641412985427
0.0016685874418249785
0.001453641412985427
0.0008804520027466232
0.0002879725642786291
-0.00011436231021591582
-0.00027694969100480727
-0.00023561391622797047
-0.00016672095826657574
-0.00012814090180819475
-0.00010058371862363688
-8.956084534981374e-05
-9.231656366826955e-05
-9.507228198672531e-05
-8.680512703135793e-05
-7.027081712062322e-05
-5.9247943846800084e-05
-5.9247943846800084e-05
-6.200366216525588e-05
-5.098078889143272e-05
-3.4446478980697995e-05
-2.6179324025330647e-05
-2.6179324025330647e-05
-2.8935042343786426e-05
-2.6179324025330647e-05
-1.240073243305171e-05
-1.377859159228559e-06
1.3778591592272275e-06
-4.133577477684346e-06
-1.377859159228559e-06
1.5156450751506162e-05
3.169076066224089e-05
4.546935225451981e-05
4.546935225451981e-05
4.82250705729756e-05
7.02708171206219e-05
9.23165636682682e-05
0.00011160659189745871
0.00012262946517128183
0.00013365233844510492
0.00016396523994811866
0.0001970338597695881
0.0002218353246356902
0.00024388107118333642
0.000263171099412527
0.0002879725642786291
0.000315529747463187
0.0003430869306477448
0.0003568655222400236
0.0003596212405584795
0.0003623769588769353
0.00037891126878767
0.00038717842374303736
0.0003844227054245816
0.00037064411383230263
0.0003568655222400236
0.0003485983672846564
0.00032379690241855427
0.00029623971923399637
0.0002686825360494386
0.00025214822613870384
0.00024388107118333642
0.0002190796063172344
0.00018601098649576498
0.00015294236667429551
0.00013089662012664922
0.00012262946517128183
0.00010885087357900291
8.404940871290084e-05
5.649222552834297e-05
4.271363393606403e-05
4.271363393606403e-05
3.720219729915245e-05
2.3423605706873515e-05
9.64501411459459e-06
4.133577477683014e-06
6.8892957961388014e-06
9.64501411459459e-06
-1.377859159228559e-06
-1.5156450751507488e-05
-2.066788738841907e-05
-1.7912169069963278e-05
-1.240073243305171e-05
-1.7912169069963278e-05
-2.6179324025330647e-05
-2.8935042343786426e-05
-2.066788738841907e-05
-6.889295796140132e-06
1.3778591592272275e-06
-1.377859159228559e-06
-1.377859159228559e-06
4.133577477683014e-06
1.7912169069961946e-05
3.169076066224089e-05
4.271363393606403e-05
5.649222552834297e-05
7.578225375753347e-05
8.956084534981241e-05
9.507228198672396e-05
9.23165636682682e-05
8.68051270313566e-05
8.129369039444505e-05
8.404940871290084e-05
8.956084534981241e-05
7.853797207598924e-05
3.9957915617608246e-05
1.2400732433050376e-05
6.8892957961388014e-06
9.64501411459459e-06
6.8892957961388014e-06
-1.377859159228559e-06
-1.240073243305171e-05
-6.889295796140132e-06
-1.377859159228559e-06
1.3778591592272275e-06
-4.133577477684346e-06
-9.64501411459592e-06
-4.133577477684346e-06
1.3778591592272275e-06
1.3778591592272275e-06
-1.377859159228559e-06
-4.133577477684346e-06
0.0002218353246356902
0.0005745672693980309
0.0010623294117647053
0.0014867100328068963
0.001657564568551155
0.0014067942015716782
0.0008253376363775078
0.00024112535286488067
-0.0001391637750820179
-0.0002604153810940725
-0.00019427814145113364
-0.00012538518348973897
-0.00010058371862363688
-9.507228198672531e-05
-9.231656366826955e-05
-8.129369039444639e-05
-6.475938048371164e-05
-5.6492225528344285e-05
-6.200366216525588e-05
-6.200366216525588e-05
-5.3736507209888505e-05
-4.2713633936065354e-05
-3.995791561760957e-05
-4.2713633936065354e-05
-4.5469352254521147e-05
-3.995791561760957e-05
-2.6179324025330647e-05
-1.5156450751507488e-05
-1.240073243305171e-05
-1.7912169069963278e-05
-1.5156450751507488e-05
-1.377859159228559e-06
1.2400732433050376e-05
1.2400732433050376e-05
9.64501411459459e-06
2.066788738841773e-05
3.720219729915245e-05
5.373650720988717e-05
6.475938048371032e-05
7.578225375753347e-05
8.956084534981241e-05
0.00011436231021591448
0.00014743093003738393
0.00016672095826657444
0.00018049954985885336
0.00020530101472495543
0.0002383696345464249
0.0002741939726863501
0.00030450687418936376
0.0003182854657816428
0.00033206405737392166
0.00035135408560311223
0.0003733998321507585
0.000392689860379949
0.0003954455786984048
0.00038993414206149314
0.00038717842374303736
0.000392689860379949
0.000392689860379949
0.0003816669871061258
0.0003623769588769353
0.000340331212329289
0.00032379690241855427
0.0003072625925078196
0.0002879725642786291
0.00023285819790951333
0.000210812451361867
0.00018876670481422076
0.00016672095826657444
0.00013640805676356078
0.00011160659189745871
0.00010058371862363556
9.507228198672396e-05
8.129369039444505e-05
5.9247943846798756e-05
4.271363393606403e-05
3.169076066224089e-05
3.169076066224089e-05
2.8935042343785094e-05
1.7912169069961946e-05
6.8892957961388014e-06
-1.377859159228559e-06
1.3778591592272275e-06
6.8892957961388014e-06
1.3778591592272275e-06
-1.5156450751507488e-05
-1.7912169069963278e-05
-1.5156450751507488e-05
-1.5156450751507488e-05
-9.64501411459592e-06
-9.64501411459592e-06
-9.64501411459592e-06
-1.377859159228559e-06
9.64501411459459e-06
1.7912169069961946e-05
1.7912169069961946e-05
1.2400732433050376e-05
3.169076066224089e-05
6.475938048371032e-05
8.404940871290084e-05
8.956084534981241e-05
8.68051270313566e-05
8.956084534981241e-05
0.00010333943694209132
0.00010885087357900291
9.782800030517979e-05
8.68051270313566e-05
8.404940871290084e-05
6.751509880216611e-05
4.546935225451981e-05
3.169076066224089e-05
1.5156450751506162e-05
4.133577477683014e-06
4.133577477683014e-06
6.8892957961388014e-06
6.8892957961388014e-06
-1.377859159228559e-06
-9.64501411459592e-06
-9.64501411459592e-06
-1.377859159228559e-06
-1.377859159228559e-06
-4.133577477684346e-06
-1.240073243305171e-05
-1.240073243305171e-05
-1.377859159228559e-06
2.6179324025329308e-05
0.00012262946517128183
0.0003733998321507585
0.0008280933546959632
0.0013296340886549166
0.0015831601739528486
0.0010843751583123511
0.0004588271000228878
-6.889295796140132e-06
-0.00023836963454642628
-0.00023836963454642628
-0.00016396523994811996
-0.0001226294651712832
-0.00010058371862363688
-8.129369039444639e-05
-7.302653543907902e-05
-7.302653543907902e-05
-7.302653543907902e-05
-6.475938048371164e-05
-5.098078889143272e-05
-4.5469352254521147e-05
-4.2713633936065354e-05
-4.5469352254521147e-05
-3.995791561760957e-05
-2.6179324025330647e-05
-1.7912169069963278e-05
-2.342360570687485e-05
-2.8935042343786426e-05
-2.8935042343786426e-05
-1.7912169069963278e-05
-6.889295796140132e-06
-4.133577477684346e-06
-4.133577477684346e-06
-4.133577477684346e-06
9.64501411459459e-06
2.8935042343785094e-05
3.720219729915245e-05
3.444647898069667e-05
4.271363393606403e-05
5.9247943846798756e-05
8.129369039444505e-05
0.00010333943694209132
0.00011436231021591448
0.00013089662012664922
0.00016120952162966288
0.00019427814145113231
0.00022459104295414594
0.00024388107118333642
0.00026041538109407124
0.0002879725642786291
0.0003182854657816428
0.000340331212329289
0.00035135408560311223
0.00035410980392156795
0.0003623769588769353
0.00037064411383230263
0.00037615555046921414
0.0003733998321507585
0.0003623769588769353
0.00034584264896620056
0.00033206405737392166
0.00032379690241855427
0.000301751155870908
0.0002769496910048059
0.0002493925078202481
0.00023010247959105753
0.00021632388799877858
0.00019427814145113231
0.00016120952162966288
0.00013365233844510492
0.00011436231021591448
8.129369039444505e-05
5.373650720988717e-05
3.169076066224089e-05
2.066788738841773e-05
2.066788738841773e-05
1.7912169069961946e-05
4.133577477683014e-06
-9.64501411459592e-06
-1.5156450751507488e-05
-4.133577477684346e-06
1.3778591592272275e-06
-6.889295796140132e-06
-2.066788738841907e-05
-2.6179324025330647e-05
-2.342360570687485e-05
-2.066788738841907e-05
-2.8935042343786426e-05
-3.720219729915378e-05
-4.2713633936065354e-05
-3.4446478980697995e-05
-2.066788738841907e-05
-1.5156450751507488e-05
-1.7912169069963278e-05
-2.066788738841907e-05
-1.240073243305171e-05
1.3778591592272275e-06
6.8892957961388014e-06
1.5156450751506162e-05
2.8935042343785094e-05
5.098078889143139e-05
6.751509880216611e-05
7.853797207598924e-05
7.853797207598924e-05
7.02708171206219e-05
6.751509880216611e-05
7.02708171206219e-05
7.02708171206219e-05
5.9247943846798756e-05
2.8935042343785094e-05
1.3778591592272275e-06
-6.889295796140132e-06
-6.889295796140132e-06
-9.64501411459592e-06
-2.6179324025330647e-05
-3.720219729915378e-05
-3.169076066224221e-05
-2.342360570687485e-05
-1.7912169069963278e-05
-2.066788738841907e-05
-3.169076066224221e-05
-2.6179324025330647e-05
-1.5156450751507488e-05
-2.066788738841907e-05
-2.6179324025330647e-05
-2.8935042343786426e-05
-1.240073243305171e-05
9.507228198672396e-05
0.0003596212405584795
0.0007812461432822147
0.0012111382009613175
0.0014784428778515288
0.0014067942015716782
0.0009686349889372082
0.0003954455786984048
-4.2713633936065354e-05
-0.0002549039444571609
-0.00016672095826657574
-0.00012814090180819475
-0.0001171180285343716
-0.00011160659189746003
-0.00010333943694209268
-8.956084534981374e-05
-8.404940871290214e-05
-8.680512703135793e-05
-8.680512703135793e-05
-7.57822537575348e-05
-6.475938048371164e-05
-5.9247943846800084e-05
-5.9247943846800084e-05
-6.200366216525588e-05
-5.9247943846800084e-05
-4.8225070572976926e-05
-3.995791561760957e-05
-3.995791561760957e-05
-4.2713633936065354e-05
-3.720219729915378e-05
-2.342360570687485e-05
-1.240073243305171e-05
-1.240073243305171e-05
-1.5156450751507488e-05
-9.64501411459592e-06
6.8892957961388014e-06
2.3423605706873515e-05
3.444647898069667e-05
3.9957915617608246e-05
4.82250705729756e-05
7.02708171206219e-05
9.782800030517979e-05
0.00011987374685282605
0.00013640805676356078
0.0001556980849927513
0.00018049954985885336
0.00021632388799877858
0.00024112535286488067
0.0002576596627756154
0.0002686825360494386
0.0002852168459601733
0.0002989954375524522
0.000315529747463187
0.00032104118410009855
0.0003182854657816428
0.0003182854657816428
0.0003375754940108332
0.0003485983672846564
0.00034584264896620056
0.0003375754940108332
0.0003375754940108332
0.0003430869306477448
0.0003375754940108332
0.00031001831082627527
0.0002769496910048059
0.00025214822613870384
0.00022459104295414594
0.00020530101472495543
0.00017774383154039756
0.00014467521171892812
0.00010885087357900291
7.30265354390777e-05
5.373650720988717e-05
3.9957915617608246e-05
4.133577477683014e-06
-6.889295796140132e-06
-6.889295796140132e-06
-6.889295796140132e-06
-1.240073243305171e-05
-2.6179324025330647e-05
-3.720219729915378e-05
-3.4446478980697995e-05
-2.6179324025330647e-05
-2.6179324025330647e-05
-3.720219729915378e-05
-4.5469352254521147e-05
-3.720219729915378e-05
-2.8935042343786426e-05
-3.4446478980697995e-05
-4.5469352254521147e-05
-1.7912169069963278e-05
8.129369039444505e-05
0.0002686825360494386
0.0005883458609903097
0.0010237493553063243
0.0013847484550240322
0.0014426185397116034
0.0010237493553063243
0.00026592681773098274
-0.00036788839551384826
-0.0005249643396658282
-0.0003899341420614945
-0.00024939250782024937
-0.0001612095216296642
-0.0001336523384451063
-0.00012538518348973897
-0.0001171180285343716
-0.00010333943694209268
-9.231656366826955e-05
-8.956084534981374e-05
-9.231656366826955e-05
-9.231656366826955e-05
-8.404940871290214e-05
-7.57822537575348e-05
-7.57822537575348e-05
-8.129369039444639e-05
-7.85379720759906e-05
-7.302653543907902e-05
-6.475938048371164e-05
-5.9247943846800084e-05
-5.6492225528344285e-05
-5.098078889143272e-05
-3.995791561760957e-05
-2.066788738841907e-05
-9.64501411459592e-06
-6.889295796140132e-06
-6.889295796140132e-06
4.133577477683014e-06
2.6179324025329308e-05
4.546935225451981e-05
5.9247943846798756e-05
7.30265354390777e-05
9.23165636682682e-05
0.00012262946517128183
0.00015845380331120705
0.0001832552681773092
0.0001970338597695881
0.00021632388799877858
0.00024663678950179223
0.00029623971923399637
0.000301751155870908
0.00030450687418936376
0.000315529747463187
0.00032655262073701005
0.00033206405737392166
0.0003293083390554659
0.000315529747463187
0.00031001831082627527
0.0003072625925078196
0.00029623971923399637
0.0002741939726863501
0.00024663678950179223
0.0002218353246356902
0.00020254529640649968
0.0001832552681773092
0.0001556980849927513
0.00011987374685282605
8.68051270313566e-05
6.475938048371032e-05
5.098078889143139e-05
2.8935042343785094e-05
1.3778591592272275e-06
-1.7912169069963278e-05
-2.342360570687485e-05
-2.342360570687485e-05
-3.169076066224221e-05
-4.2713633936065354e-05
-4.8225070572976926e-05
-4.5469352254521147e-05
-3.995791561760957e-05
-3.720219729915378e-05
-4.5469352254521147e-05
-4.8225070572976926e-05
-4.5469352254521147e-05
-3.720219729915378e-05
-3.169076066224221e-05
-3.4446478980697995e-05
-4.2713633936065354e-05
-4.2713633936065354e-05
-3.4446478980697995e-05
-2.8935042343786426e-05
-3.169076066224221e-05
-3.995791561760957e-05
-4.2713633936065354e-05
-3.169076066224221e-05
-2.8935042343786426e-05
-3.169076066224221e-05
-3.995791561760957e-05
-5.098078889143272e-05
-5.098078889143272e-05
-4.2713633936065354e-05
-4.5469352254521147e-05
-5.6492225528344285e-05
-6.200366216525588e-05
-6.200366216525588e-05
-5.9247943846800084e-05
-5.9247943846800084e-05
-6.751509880216745e-05
-7.85379720759906e-05
-8.129369039444639e-05
-6.475938048371164e-05
-5.098078889143272e-05
-5.098078889143272e-05
-5.6492225528344285e-05
-4.8225070572976926e-05
-3.720219729915378e-05
-3.169076066224221e-05
-2.6179324025330647e-05
-1.240073243305171e-05
4.133577477683014e-06
1.2400732433050376e-05
6.8892957961388014e-06
-1.377859159228559e-06
-1.240073243305171e-05
-2.066788738841907e-05
-2.342360570687485e-05
-3.720219729915378e-05
-6.475938048371164e-05
-8.956084534981374e-05
-0.00010058371862363688
-0.00010058371862363688
-0.00010333943694209268
-0.00011160659189746003
-0.0001198737468528274
-0.0001171180285343716
-0.00010609515526054846
-0.00010058371862363688
-0.00010609515526054846
-0.0001171180285343716
-0.0001171180285343716
-0.00011436231021591582
-0.00010333943694209268
-9.507228198672531e-05
-6.751509880216745e-05
4.82250705729756e-05
0.0003127740291447311
0.0006682616922255276
0.0009769021438925758
0.001125710933089188
0.0010099707637140451
0.0006462159456778814
0.00023010247959105753
-8.680512703135793e-05
-0.0002549039444571609
-0.00024939250782024937
-0.00020254529640650095
-0.00018049954985885472
-0.00016947667658503157
-0.00016947667658503157
-0.00017223239490348733
-0.00017223239490348733
-0.0001612095216296642
-0.00015294236667429682
-0.00015294236667429682
-0.00015569808499275262
-0.000150186648355841
-0.00014191949340047367
-0.0001336523384451063
-0.0001364080567635621
-0.0001391637750820179
-0.00014191949340047367
-0.00013089662012665053
-0.0001198737468528274
-0.0001171180285343716
-0.0001198737468528274
-0.0001198737468528274
-0.00011160659189746003
-9.507228198672531e-05
-8.680512703135793e-05
-8.404940871290214e-05
-7.57822537575348e-05
-5.6492225528344285e-05
-4.2713633936065354e-05
-3.4446478980697995e-05
-3.169076066224221e-05
-2.066788738841907e-05
1.3778591592272275e-06
2.6179324025329308e-05
3.9957915617608246e-05
4.82250705729756e-05
6.200366216525454e-05
8.129369039444505e-05
0.00010885087357900291
0.0001253851834897376
0.0001253851834897376
0.00013365233844510492
0.00015018664835583973
0.0001694766765850302
0.00017774383154039756
0.00017498811322194178
0.000172232394903486
0.00017498811322194178
0.00017774383154039756
0.00017774383154039756
0.0001694766765850302
0.00015294236667429551
0.00014467521171892812
0.00014191949340047234
0.00013089662012664922
0.00011436231021591448
0.00010058371862363556
8.68051270313566e-05
8.129369039444505e-05
7.578225375753347e-05
5.9247943846798756e-05
3.9957915617608246e-05
2.3423605706873515e-05
1.5156450751506162e-05
1.2400732433050376e-05
-4.133577477684346e-06
-2.342360570687485e-05
-3.995791561760957e-05
-4.2713633936065354e-05
-3.995791561760957e-05
-4.5469352254521147e-05
-5.6492225528344285e-05
-6.751509880216745e-05
-7.027081712062322e-05
-6.475938048371164e-05
-6.475938048371164e-05
-7.302653543907902e-05
-8.404940871290214e-05
-8.129369039444639e-05
-7.57822537575348e-05
-7.57822537575348e-05
-7.85379720759906e-05
-8.956084534981374e-05
-8.956084534981374e-05
-7.57822537575348e-05
-6.475938048371164e-05
-6.200366216525588e-05
-5.9247943846800084e-05
-5.098078889143272e-05
-3.169076066224221e-05
-2.066788738841907e-05
-4.133577477684346e-06
9.64501411459459e-06
3.169076066224089e-05
4.82250705729756e-05
5.9247943846798756e-05
5.9247943846798756e-05
5.373650720988717e-05
5.373650720988717e-05
5.649222552834297e-05
4.82250705729756e-05
2.6179324025329308e-05
-9.64501411459592e-06
-3.4446478980697995e-05
-3.720219729915378e-05
-3.995791561760957e-05
-5.3736507209888505e-05
-6.751509880216745e-05
-7.302653543907902e-05
-6.475938048371164e-05
-5.9247943846800084e-05
-6.200366216525588e-05
-6.751509880216745e-05
-7.027081712062322e-05
-6.200366216525588e-05
-5.6492225528344285e-05
-6.200366216525588e-05
-6.475938048371164e-05
-6.475938048371164e-05
-2.6179324025330647e-05
0.00012262946517128183
0.0004367813534752416
0.0008721848477912556
0.001257985412375066
0.001423328511482413
0.0012194053559166852
0.0007261317769130989
0.0002190796063172344
-0.00014467521171892948
-0.00028797256427863044
-0.00023561391622797047
-0.00016396523994811996
-0.00013089662012665053
-0.00012814090180819475
-0.0001226294651712832
-0.00010609515526054846
-9.507228198672531e-05
-9.78280003051811e-05
-0.00010058371862363688
-9.507228198672531e-05
-8.404940871290214e-05
-7.302653543907902e-05
-7.027081712062322e-05
-7.57822537575348e-05
-8.129369039444639e-05
-7.027081712062322e-05
-5.098078889143272e-05
-5.098078889143272e-05
-5.6492225528344285e-05
-5.6492225528344285e-05
-4.8225070572976926e-05
-3.169076066224221e-05
-2.342360570687485e-05
-2.6179324025330647e-05
-2.8935042343786426e-05
-2.066788738841907e-05
1.5156450751506162e-05
2.066788738841773e-05
2.6179324025329308e-05
3.9957915617608246e-05
6.751509880216611e-05
9.23165636682682e-05
0.00011160659189745871
0.0001253851834897376
0.00014743093003738393
0.00018049954985885336
0.000210812451361867
0.00022734676127260172
0.00024388107118333642
0.0002576596627756154
0.0002769496910048059
0.0002934840009155406
0.00030450687418936376
0.00030450687418936376
0.000301751155870908
0.0002989954375524522
0.00030450687418936376
0.00029623971923399637
0.0002741939726863501
0.0002549039444571596
0.0002383696345464249
0.00023010247959105753
0.0002135681696803228
0.00019152242313267648
0.00016396523994811866
0.00014191949340047234
0.00013089662012664922
0.00011711802853437029
9.23165636682682e-05
7.02708171206219e-05
4.546935225451981e-05
3.444647898069667e-05
2.6179324025329308e-05
1.5156450751506162e-05
-4.133577477684346e-06
-1.7912169069963278e-05
-2.6179324025330647e-05
-2.342360570687485e-05
-2.6179324025330647e-05
-3.720219729915378e-05
-4.5469352254521147e-05
-4.2713633936065354e-05
-3.995791561760957e-05
-3.995791561760957e-05
-4.8225070572976926e-05
-5.6492225528344285e-05
-5.6492225528344285e-05
-5.3736507209888505e-05
-5.3736507209888505e-05
-5.9247943846800084e-05
-6.475938048371164e-05
-6.200366216525588e-05
-4.8225070572976926e-05
-3.720219729915378e-05
-3.995791561760957e-05
-4.2713633936065354e-05
-3.995791561760957e-05
-3.169076066224221e-05
-6.889295796140132e-06
1.7912169069961946e-05
2.8935042343785094e-05
4.271363393606403e-05
5.649222552834297e-05
6.475938048371032e-05
5.649222552834297e-05
3.720219729915245e-05
3.444647898069667e-05
3.169076066224089e-05
1.5156450751506162e-05
-1.5156450751507488e-05
-3.720219729915378e-05
-4.2713633936065354e-05
-3.995791561760957e-05
-3.995791561760957e-05
-4.5469352254521147e-05
-5.3736507209888505e-05
-5.6492225528344285e-05
-4.8225070572976926e-05
-3.995791561760957e-05
-4.2713633936065354e-05
-4.8225070572976926e-05
-5.098078889143272e-05
-4.8225070572976926e-05
-3.720219729915378e-05
-3.169076066224221e-05
1.3778591592272275e-06
0.0001556980849927513
0.0004974071564812689
0.000985169298847943
0.0014067942015716782
0.0015721373006790259
0.0013268783703364606
0.0007702232700083917
0.00023010247959105753
-0.0001391637750820179
-0.0002824611276417188
-0.00024112535286488197
-0.0001777438315403989
-0.00014743093003738526
-0.00012814090180819475
-0.0001226294651712832
-0.00012814090180819475
-0.00013089662012665053
-0.0001171180285343716
-0.00010333943694209268
-0.00010058371862363688
-0.00010609515526054846
-0.00010333943694209268
-9.231656366826955e-05
-8.129369039444639e-05
-7.302653543907902e-05
-7.85379720759906e-05
-8.129369039444639e-05
-7.85379720759906e-05
-6.751509880216745e-05
-5.9247943846800084e-05
-5.6492225528344285e-05
-5.6492225528344285e-05
-5.098078889143272e-05
-3.4446478980697995e-05
-2.066788738841907e-05
-1.5156450751507488e-05
-1.240073243305171e-05
1.3778591592272275e-06
2.3423605706873515e-05
4.271363393606403e-05
6.751509880216611e-05
8.129369039444505e-05
0.00011160659189745871
0.00014467521171892812
0.00016672095826657444
0.00018601098649576498
0.00020805673304341124
0.00024112535286488067
0.0002769496910048059
0.00029623971923399637
0.00030450687418936376
0.0003127740291447311
0.00032655262073701005
0.000340331212329289
0.00034584264896620056
0.0003375754940108332
0.0003293083390554659
0.00032655262073701005
0.00032379690241855427
0.00031001831082627527
0.0002879725642786291
0.00026041538109407124
0.00024112535286488067
0.00022734676127260172
0.0002135681696803228
0.00019152242313267648
0.0001556980849927513
0.00012262946517128183
0.00010885087357900291
9.23165636682682e-05
7.02708171206219e-05
4.271363393606403e-05
2.066788738841773e-05
9.64501411459459e-06
4.133577477683014e-06
-4.133577477684346e-06
-2.066788738841907e-05
-3.720219729915378e-05
-4.2713633936065354e-05
-3.995791561760957e-05
-3.995791561760957e-05
-4.8225070572976926e-05
-6.200366216525588e-05
-6.475938048371164e-05
-6.200366216525588e-05
-6.200366216525588e-05
-6.751509880216745e-05
-7.85379720759906e-05
-8.129369039444639e-05
-7.027081712062322e-05
-5.6492225528344285e-05
-5.3736507209888505e-05
-5.6492225528344285e-05
-5.3736507209888505e-05
-4.2713633936065354e-05
-3.169076066224221e-05
-2.6179324025330647e-05
-1.7912169069963278e-05
-4.133577477684346e-06
2.066788738841773e-05
4.271363393606403e-05
4.82250705729756e-05
4.546935225451981e-05
4.271363393606403e-05
3.9957915617608246e-05
4.271363393606403e-05
2.6179324025329308e-05
-6.889295796140132e-06
-3.169076066224221e-05
-3.4446478980697995e-05
-3.4446478980697995e-05
-4.5469352254521147e-05
-5.9247943846800084e-05
-6.475938048371164e-05
-5.9247943846800084e-05
-4.8225070572976926e-05
-5.3736507209888505e-05
-5.9247943846800084e-05
-6.200366216525588e-05
-5.6492225528344285e-05
-5.098078889143272e-05
-5.6492225528344285e-05
-6.200366216525588e-05
-6.200366216525588e-05
-4.133577477684346e-06
0.00018601098649576498
0.000560788677805752
0.0010540622568093376
0.0014591528496223384
0.0015859158922713046
0.0012800311589227123
0.000687551720454718
0.0001253851834897376
-0.00023561391622797047
-0.0003320640573739229
-0.00024939250782024937
-0.0001777438315403989
-0.00015294236667429682
-0.00014743093003738526
-0.00014467521171892948
-0.00013089662012665053
-0.0001171180285343716
-0.0001171180285343716
-0.0001226294651712832
-0.00012538518348973897
-0.0001171180285343716
-0.00010058371862363688
-9.78280003051811e-05
-0.00010333943694209268
-0.00010609515526054846
-9.507228198672531e-05
-8.129369039444639e-05
-7.57822537575348e-05
-7.57822537575348e-05
-8.129369039444639e-05
-7.57822537575348e-05
-5.6492225528344285e-05
-4.5469352254521147e-05
-4.5469352254521147e-05
-4.2713633936065354e-05
-3.4446478980697995e-05
-1.240073243305171e-05
6.8892957961388014e-06
1.5156450751506162e-05
2.066788738841773e-05
3.444647898069667e-05
6.475938048371032e-05
9.507228198672396e-05
0.00011987374685282605
0.00013640805676356078
0.0001556980849927513
0.00022734676127260172
0.0002493925078202481
0.00026592681773098274
0.00027970540932326175
0.0002989954375524522
0.00032104118410009855
0.0003293083390554659
0.00032655262073701005
0.00032379690241855427
0.0003182854657816428
0.0003182854657816428
0.000315529747463187
0.00029623971923399637
0.00027143825436789435
0.00025214822613870384
0.0002383696345464249
0.0002218353246356902
0.0001970338597695881
0.00016396523994811866
0.00013916377508201656
0.00012262946517128183
0.00010885087357900291
8.404940871290084e-05
5.373650720988717e-05
2.8935042343785094e-05
1.7912169069961946e-05
9.64501411459459e-06
-4.133577477684346e-06
-2.342360570687485e-05
-3.995791561760957e-05
-4.5469352254521147e-05
-4.2713633936065354e-05
-4.8225070572976926e-05
-5.6492225528344285e-05
-6.751509880216745e-05
-7.027081712062322e-05
-6.751509880216745e-05
-6.200366216525588e-05
-7.027081712062322e-05
-8.129369039444639e-05
-8.404940871290214e-05
-7.57822537575348e-05
-6.751509880216745e-05
-6.751509880216745e-05
-7.302653543907902e-05
-7.57822537575348e-05
-6.751509880216745e-05
-5.6492225528344285e-05
-5.098078889143272e-05
-5.6492225528344285e-05
-4.5469352254521147e-05
-2.342360570687485e-05
6.8892957961388014e-06
2.066788738841773e-05
2.066788738841773e-05
1.7912169069961946e-05
2.6179324025329308e-05
4.271363393606403e-05
3.9957915617608246e-05
2.3423605706873515e-05
1.2400732433050376e-05
1.3778591592272275e-06
-1.7912169069963278e-05
-3.4446478980697995e-05
-4.5469352254521147e-05
-6.200366216525588e-05
-5.6492225528344285e-05
-5.098078889143272e-05
-5.3736507209888505e-05
-6.200366216525588e-05
-6.751509880216745e-05
-5.6492225528344285e-05
-5.098078889143272e-05
-5.6492225528344285e-05
-6.475938048371164e-05
-7.027081712062322e-05
-5.9247943846800084e-05
-3.4446478980697995e-05
4.271363393606403e-05
0.00026041538109407124
0.0006682616922255276
0.0011615352712291134
0.0015363129625391005
0.0015666258640421142
0.0011587795529106576
0.0005387429312581057
2.8935042343785094e-05
-0.00025765966277561676
-0.0002962397192339978
-0.00022734676127260308
-0.00019152242313267784
-0.0001777438315403989
-0.0001612095216296642
-0.00014467521171892948
-0.00014191949340047367
-0.00014743093003738526
-0.00014743093003738526
-0.0001391637750820179
-0.0001226294651712832
-0.0001198737468528274
-0.0001198737468528274
-0.0001226294651712832
-0.00011436231021591582
-0.00010333943694209268
-9.78280003051811e-05
-0.00010333943694209268
-0.00010333943694209268
-9.78280003051811e-05
-8.129369039444639e-05
-7.302653543907902e-05
-7.302653543907902e-05
-7.302653543907902e-05
-6.200366216525588e-05
-4.8225070572976926e-05
-3.720219729915378e-05
-3.169076066224221e-05
-2.6179324025330647e-05
-1.240073243305171e-05
1.5156450751506162e-05
3.9957915617608246e-05
5.649222552834297e-05
6.751509880216611e-05
9.507228198672396e-05
0.00013089662012664922
0.00016396523994811866
0.00019427814145113231
0.00021632388799877858
0.0002383696345464249
0.00026592681773098274
0.00029623971923399637
0.00032104118410009855
0.00032104118410009855
0.0003293083390554659
0.0003375754940108332
0.0003375754940108332
0.00032655262073701005
0.00031001831082627527
0.00029623971923399637
0.0002879725642786291
0.0002769496910048059
0.0002549039444571596
0.00022734676127260172
0.00020254529640649968
0.00018876670481422076
0.000172232394903486
0.00014743093003738393
0.00010885087357900291
7.853797207598924e-05
6.475938048371032e-05
5.373650720988717e-05
3.444647898069667e-05
9.64501411459459e-06
-9.64501411459592e-06
-2.066788738841907e-05
-2.066788738841907e-05
-2.8935042343786426e-05
-4.2713633936065354e-05
-5.6492225528344285e-05
-5.6492225528344285e-05
-5.6492225528344285e-05
-5.6492225528344285e-05
-6.751509880216745e-05
-7.57822537575348e-05
-7.57822537575348e-05
-7.027081712062322e-05
-7.027081712062322e-05
-7.302653543907902e-05
-7.57822537575348e-05
-7.57822537575348e-05
-6.200366216525588e-05
-5.098078889143272e-05
-4.5469352254521147e-05
-5.098078889143272e-05
-5.3736507209888505e-05
-4.2713633936065354e-05
-1.7912169069963278e-05
4.133577477683014e-06
9.64501411459459e-06
1.2400732433050376e-05
2.3423605706873515e-05
3.9957915617608246e-05
4.546935225451981e-05
3.444647898069667e-05
2.3423605706873515e-05
2.3423605706873515e-05
2.066788738841773e-05
-4.133577477684346e-06
-2.8935042343786426e-05
-4.2713633936065354e-05
-4.5469352254521147e-05
-4.5469352254521147e-05
-4.2713633936065354e-05
-4.8225070572976926e-05
-5.6492225528344285e-05
-5.9247943846800084e-05
-4.5469352254521147e-05
-5.098078889143272e-05
-5.9247943846800084e-05
-6.475938048371164e-05
-6.475938048371164e-05
-5.6492225528344285e-05
-4.5469352254521147e-05
1.5156450751506162e-05
0.0002218353246356902
0.0006324373540856024
0.0011477566796368347
0.0015335572442206446
0.0015721373006790259
0.0011615352712291134
0.0005442543678950173
3.444647898069667e-05
-0.0002686825360494398
-0.00032379690241855563
-0.00024939250782024937
-0.00019427814145113364
-0.00016396523994811996
-0.00014743093003738526
-0.00014191949340047367
-0.00014191949340047367
-0.0001391637750820179
-0.00012538518348973897
-0.00010885087357900426
-0.00010333943694209268
-0.00011160659189746003
-0.00011160659189746003
-0.00010609515526054846
-9.507228198672531e-05
-8.956084534981374e-05
-8.956084534981374e-05
-9.231656366826955e-05
-8.404940871290214e-05
-7.027081712062322e-05
-6.200366216525588e-05
-6.200366216525588e-05
-6.751509880216745e-05
-6.200366216525588e-05
-4.5469352254521147e-05
-2.8935042343786426e-05
-2.066788738841907e-05
-1.7912169069963278e-05
-4.133577477684346e-06
1.7912169069961946e-05
4.271363393606403e-05
5.9247943846798756e-05
6.475938048371032e-05
8.129369039444505e-05
0.00011160659189745871
0.00014467521171892812
0.000172232394903486
0.00019152242313267648
0.000210812451361867
0.00024112535286488067
0.0002741939726863501
0.0002989954375524522
0.0003072625925078196
0.0003072625925078196
0.000315529747463187
0.00033206405737392166
0.0003375754940108332
0.00032379690241855427
0.00029623971923399637
0.0002934840009155406
0.0002741939726863501
0.0002493925078202481
0.0002190796063172344
0.0001970338597695881
0.00018601098649576498
0.000172232394903486
0.00014191949340047234
0.00011160659189745871
8.956084534981241e-05
7.02708171206219e-05
5.9247943846798756e-05
4.271363393606403e-05
1.5156450751506162e-05
-6.889295796140132e-06
-1.240073243305171e-05
-9.64501411459592e-06
-1.5156450751507488e-05
-3.169076066224221e-05
-4.5469352254521147e-05
-5.098078889143272e-05
-5.098078889143272e-05
-5.3736507209888505e-05
-6.200366216525588e-05
-7.302653543907902e-05
-7.302653543907902e-05
-6.475938048371164e-05
-6.200366216525588e-05
-7.027081712062322e-05
-8.404940871290214e-05
-8.404940871290214e-05
-6.751509880216745e-05
-5.6492225528344285e-05
-5.6492225528344285e-05
-5.9247943846800084e-05
-5.9247943846800084e-05
-4.5469352254521147e-05
-3.4446478980697995e-05
-2.342360570687485e-05
-1.240073243305171e-05
1.3778591592272275e-06
1.7912169069961946e-05
3.444647898069667e-05
3.9957915617608246e-05
3.720219729915245e-05
2.8935042343785094e-05
2.066788738841773e-05
2.6179324025329308e-05
2.6179324025329308e-05
-1.377859159228559e-06
-3.4446478980697995e-05
-4.8225070572976926e-05
-4.5469352254521147e-05
-4.5469352254521147e-05
-5.6492225528344285e-05
-6.475938048371164e-05
-6.751509880216745e-05
-5.6492225528344285e-05
-5.098078889143272e-05
-5.3736507209888505e-05
-5.3736507209888505e-05
-5.9247943846800084e-05
-5.6492225528344285e-05
-5.098078889143272e-05
-5.098078889143272e-05
-3.720219729915378e-05
7.30265354390777e-05
0.000340331212329289
0.0007895132982375822
0.0012745197222858006
0.0015859158922713046
0.001530801525902189
0.0010595736934462493
0.0004395370717936973
-3.720219729915378e-05
-0.00028797256427863044
-0.00029072828259708617
-0.00020254529640650095
-0.00015294236667429682
-0.00014191949340047367
-0.00014191949340047367
-0.0001391637750820179
-0.00012538518348973897
-0.00011436231021591582
-0.00010885087357900426
-0.00010885087357900426
-0.00010885087357900426
-9.78280003051811e-05
-8.680512703135793e-05
-8.404940871290214e-05
-8.956084534981374e-05
-8.956084534981374e-05
-7.85379720759906e-05
-6.751509880216745e-05
-6.200366216525588e-05
-6.475938048371164e-05
-7.027081712062322e-05
-6.200366216525588e-05
-4.2713633936065354e-05
-3.169076066224221e-05
-3.4446478980697995e-05
-3.4446478980697995e-05
-2.6179324025330647e-05
-6.889295796140132e-06
1.2400732433050376e-05
2.3423605706873515e-05
2.8935042343785094e-05
4.546935225451981e-05
7.578225375753347e-05
0.00010885087357900291
0.00013365233844510492
0.00015294236667429551
0.00018049954985885336
0.0002190796063172344
0.0002549039444571596
0.0002769496910048059
0.00029072828259708476
0.0003072625925078196
0.00033206405737392166
0.0003485983672846564
0.0003623769588769353
0.0003568655222400236
0.0003485983672846564
0.0003485983672846564
0.00035410980392156795
0.00034584264896620056
0.00032655262073701005
0.000301751155870908
0.0002824611276417174
0.00027143825436789435
0.00023561391622796914
0.00020805673304341124
0.00017498811322194178
0.00015294236667429551
0.00013365233844510492
0.00010885087357900291
7.578225375753347e-05
4.82250705729756e-05
3.9957915617608246e-05
3.720219729915245e-05
2.066788738841773e-05
1.3778591592272275e-06
-1.240073243305171e-05
-1.5156450751507488e-05
-1.240073243305171e-05
-1.5156450751507488e-05
-2.6179324025330647e-05
-3.995791561760957e-05
-4.5469352254521147e-05
-4.5469352254521147e-05
-3.995791561760957e-05
-4.5469352254521147e-05
-5.3736507209888505e-05
-5.9247943846800084e-05
-5.3736507209888505e-05
-3.995791561760957e-05
-3.720219729915378e-05
-4.2713633936065354e-05
-4.5469352254521147e-05
-3.169076066224221e-05
-1.7912169069963278e-05
-2.066788738841907e-05
-2.342360570687485e-05
-9.64501411459592e-06
1.7912169069961946e-05
3.720219729915245e-05
3.9957915617608246e-05
3.720219729915245e-05
3.720219729915245e-05
4.82250705729756e-05
5.098078889143139e-05
3.9957915617608246e-05
3.444647898069667e-05
1.5156450751506162e-05
-9.64501411459592e-06
-1.7912169069963278e-05
-2.342360570687485e-05
-3.4446478980697995e-05
-4.8225070572976926e-05
-5.098078889143272e-05
-5.098078889143272e-05
-4.8225070572976926e-05
-5.098078889143272e-05
-5.3736507209888505e-05
-5.3736507209888505e-05
-4.5469352254521147e-05
-3.4446478980697995e-05
-3.995791561760957e-05
-5.3736507209888505e-05
-5.6492225528344285e-05
-3.995791561760957e-05
4.271363393606403e-05
0.0002493925078202481
0.0006269259174486908
0.0010761080033569843
0.001423328511482413
0.0010402836652170589
0.000469849973296711
-6.889295796140132e-06
-0.00027419397268635144
-0.00028797256427863044
-0.0001997895780880452
-0.00015294236667429682
-0.00014191949340047367
-0.0001336523384451063
-0.00011436231021591582
-0.00010058371862363688
-0.00010058371862363688
-0.00010609515526054846
-0.00010333943694209268
-8.680512703135793e-05
-7.57822537575348e-05
-7.85379720759906e-05
-8.956084534981374e-05
-9.507228198672531e-05
-8.404940871290214e-05
-7.027081712062322e-05
-6.751509880216745e-05
-6.751509880216745e-05
-7.302653543907902e-05
-6.475938048371164e-05
-4.8225070572976926e-05
-4.2713633936065354e-05
-4.5469352254521147e-05
-4.8225070572976926e-05
-4.2713633936065354e-05
-2.342360570687485e-05
-4.133577477684346e-06
-1.377859159228559e-06
1.3778591592272275e-06
1.5156450751506162e-05
4.271363393606403e-05
6.751509880216611e-05
8.404940871290084e-05
0.00010058371862363556
0.00011987374685282605
0.00015018664835583973
0.00018049954985885336
0.00020530101472495543
0.0002190796063172344
0.00023010247959105753
0.00024663678950179223
0.0002741939726863501
0.0002879725642786291
0.0002852168459601733
0.00027970540932326175
0.0002852168459601733
0.0002934840009155406
0.00029072828259708476
0.0002741939726863501
0.00025214822613870384
0.0002383696345464249
0.00022734676127260172
0.0002135681696803228
0.00019152242313267648
0.00016396523994811866
0.00014191949340047234
0.00013089662012664922
0.00011436231021591448
8.68051270313566e-05
3.720219729915245e-05
2.6179324025329308e-05
2.3423605706873515e-05
1.2400732433050376e-05
-6.889295796140132e-06
-2.066788738841907e-05
-2.8935042343786426e-05
-2.8935042343786426e-05
-3.169076066224221e-05
-4.5469352254521147e-05
-5.9247943846800084e-05
-6.475938048371164e-05
-5.6492225528344285e-05
-5.098078889143272e-05
-5.6492225528344285e-05
-6.751509880216745e-05
-7.027081712062322e-05
-6.751509880216745e-05
-6.475938048371164e-05
-6.751509880216745e-05
-6.751509880216745e-05
-6.751509880216745e-05
-5.6492225528344285e-05
-4.2713633936065354e-05
-3.995791561760957e-05
-4.8225070572976926e-05
-4.8225070572976926e-05
-2.6179324025330647e-05
-1.377859159228559e-06
1.2400732433050376e-05
1.5156450751506162e-05
9.64501411459459e-06
1.5156450751506162e-05
2.6179324025329308e-05
2.066788738841773e-05
9.64501411459459e-06
1.3778591592272275e-06
-1.7912169069963278e-05
-3.720219729915378e-05
-4.5469352254521147e-05
-5.9247943846800084e-05
-7.57822537575348e-05
-7.85379720759906e-05
-7.57822537575348e-05
-7.302653543907902e-05
-7.302653543907902e-05
-7.85379720759906e-05
-8.129369039444639e-05
-7.57822537575348e-05
-6.475938048371164e-05
-6.751509880216745e-05
-8.404940871290214e-05
-8.956084534981374e-05
-7.57822537575348e-05
-4.8225070572976926e-05
3.169076066224089e-05
0.00023010247959105753
0.0005745672693980309
0.0009631235523002968
0.0012221610742351409
0.0011946038910505827
0.0008225819180590517
0.00033206405737392166
-5.098078889143272e-05
-0.00025765966277561676
-0.00020530101472495681
-0.0001777438315403989
-0.00016672095826657574
-0.00014467521171892948
-0.00013089662012665053
-0.00013089662012665053
-0.0001336523384451063
-0.0001336523384451063
-0.0001226294651712832
-0.00011160659189746003
-0.00011160659189746003
-0.0001171180285343716
-0.0001171180285343716
-0.00010885087357900426
-9.507228198672531e-05
-8.680512703135793e-05
-8.956084534981374e-05
-9.507228198672531e-05
-8.956084534981374e-05
-7.85379720759906e-05
-7.027081712062322e-05
-7.57822537575348e-05
-7.85379720759906e-05
-7.302653543907902e-05
-5.6492225528344285e-05
-4.2713633936065354e-05
-3.995791561760957e-05
-3.4446478980697995e-05
-2.6179324025330647e-05
-6.889295796140132e-06
1.5156450751506162e-05
2.8935042343785094e-05
4.271363393606403e-05
5.9247943846798756e-05
8.956084534981241e-05
0.00012262946517128183
0.00014467521171892812
0.0001556980849927513
0.000172232394903486
0.0001970338597695881
0.0002218353246356902
0.00023561391622796914
0.00023561391622796914
0.00023561391622796914
0.00024388107118333642
0.0002549039444571596
0.0002576596627756154
0.00024663678950179223
0.00023010247959105753
0.0002190796063172344
0.000210812451361867
0.0001970338597695881
0.00017774383154039756
0.0001556980849927513
0.00013365233844510492
0.00011987374685282605
0.00011160659189745871
8.956084534981241e-05
6.200366216525454e-05
3.9957915617608246e-05
2.8935042343785094e-05
1.7912169069961946e-05
4.133577477683014e-06
-1.7912169069963278e-05
-3.720219729915378e-05
-4.2713633936065354e-05
-4.2713633936065354e-05
-5.6492225528344285e-05
-6.475938048371164e-05
-6.751509880216745e-05
-6.200366216525588e-05
-6.475938048371164e-05
-7.57822537575348e-05
-8.680512703135793e-05
-8.956084534981374e-05
-8.129369039444639e-05
-8.129369039444639e-05
-8.680512703135793e-05
-9.507228198672531e-05
-9.231656366826955e-05
-8.129369039444639e-05
-7.027081712062322e-05
-6.475938048371164e-05
-7.027081712062322e-05
-7.027081712062322e-05
-5.6492225528344285e-05
-3.169076066224221e-05
-1.5156450751507488e-05
-1.7912169069963278e-05
-2.066788738841907e-05
-1.240073243305171e-05
-4.133577477684346e-06
-6.889295796140132e-06
-2.066788738841907e-05
-2.8935042343786426e-05
-3.169076066224221e-05
-4.8225070572976926e-05
-7.027081712062322e-05
-8.680512703135793e-05
-0.00010333943694209268
-0.00010609515526054846
-9.507228198672531e-05
-9.231656366826955e-05
-9.507228198672531e-05
-0.00010333943694209268
-0.00010333943694209268
-9.78280003051811e-05
-8.956084534981374e-05
-9.231656366826955e-05
-0.00010058371862363688
-0.00010333943694209268
-9.507228198672531e-05
-8.129369039444639e-05
-5.098078889143272e-05
4.546935225451981e-05
0.0002852168459601733
0.0006599945372701603
0.0010265050736247801
0.001205626764324406
0.0010568179751277937
0.0006324373540856024
0.00018049954985885336
-0.00014191949340047367
-0.0002989954375524536
-0.0002824611276417188
-0.0002218353246356915
-0.00019152242313267784
-0.00017223239490348733
-0.0001612095216296642
-0.0001612095216296642
-0.00016672095826657574
-0.000150186648355841
-0.0001364080567635621
-0.0001391637750820179
-0.00014743093003738526
-0.000150186648355841
-0.0001391637750820179
-0.0001336523384451063
-0.0001364080567635621
-0.0001336523384451063
-0.00012814090180819475
-0.0001171180285343716
-0.00011160659189746003
-0.00010609515526054846
-0.00010333943694209268
-0.00010609515526054846
-9.78280003051811e-05
-8.129369039444639e-05
-7.027081712062322e-05
-7.027081712062322e-05
-7.027081712062322e-05
-6.200366216525588e-05
-3.720219729915378e-05
-1.5156450751507488e-05
-1.377859159228559e-06
6.8892957961388014e-06
2.3423605706873515e-05
5.373650720988717e-05
8.404940871290084e-05
0.00010609515526054714
0.00012262946517128183
0.00014191949340047234
0.00016672095826657444
0.00019152242313267648
0.000210812451361867
0.000210812451361867
0.0002135681696803228
0.0002218353246356902
0.00023561391622796914
0.00024112535286488067
0.00022459104295414594
0.00020530101472495543
0.00019978957808804387
0.0001970338597695881
0.00018601098649576498
0.00016672095826657444
0.00013916377508201656
0.00012262946517128183
0.00010609515526054714
9.23165636682682e-05
7.02708171206219e-05
3.9957915617608246e-05
1.7912169069961946e-05
9.64501411459459e-06
-1.377859159228559e-06
-2.066788738841907e-05
-4.2713633936065354e-05
-5.6492225528344285e-05
-6.200366216525588e-05
-6.200366216525588e-05
-6.751509880216745e-05
-7.85379720759906e-05
-8.680512703135793e-05
-8.956084534981374e-05
-8.404940871290214e-05
-8.129369039444639e-05
-0.00010333943694209268
-0.00010058371862363688
-9.78280003051811e-05
-0.00010333943694209268
-0.00010885087357900426
-0.00011436231021591582
-0.00011160659189746003
-9.78280003051811e-05
-8.956084534981374e-05
-8.956084534981374e-05
-8.956084534981374e-05
-9.231656366826955e-05
-8.680512703135793e-05
-6.475938048371164e-05
-4.5469352254521147e-05
-3.720219729915378e-05
-3.4446478980697995e-05
-2.066788738841907e-05
-9.64501411459592e-06
-4.133577477684346e-06
-1.7912169069963278e-05
-2.8935042343786426e-05
-2.342360570687485e-05
-2.066788738841907e-05
-4.5469352254521147e-05
-7.57822537575348e-05
-9.231656366826955e-05
-9.231656366826955e-05
-8.956084534981374e-05
-8.680512703135793e-05
-9.507228198672531e-05
-0.00010058371862363688
-0.00010058371862363688
-8.956084534981374e-05
-8.129369039444639e-05
-8.404940871290214e-05
-9.231656366826955e-05
-9.78280003051811e-05
-9.507228198672531e-05
-8.404940871290214e-05
-8.129369039444639e-05
-5.098078889143272e-05
9.23165636682682e-05
0.00042300276188296266
0.0008776962844281674
0.0012690082856488892
0.0014178170748455018
0.001178069581139848
0.0006682616922255276
0.0001694766765850302
-0.00018049954985885472
-0.00031828546578164407
-0.00027694969100480727
-0.00021356816968032413
-0.0001777438315403989
-0.00016396523994811996
-0.00016396523994811996
-0.00016672095826657574
-0.00016396523994811996
-0.000150186648355841
-0.0001364080567635621
-0.0001391637750820179
-0.00014467521171892948
-0.00014191949340047367
-0.00012814090180819475
-0.00011436231021591582
-0.0001171180285343716
-0.0001198737468528274
-0.00011160659189746003
-0.00010333943694209268
-9.507228198672531e-05
-9.78280003051811e-05
-0.00010333943694209268
-9.231656366826955e-05
-7.57822537575348e-05
-6.475938048371164e-05
-6.200366216525588e-05
-6.200366216525588e-05
-5.3736507209888505e-05
-3.169076066224221e-05
-9.64501411459592e-06
-1.377859159228559e-06
1.2400732433050376e-05
3.444647898069667e-05
6.200366216525454e-05
9.23165636682682e-05
0.00011160659189745871
0.00012814090180819342
0.00015294236667429551
0.00018601098649576498
0.0002218353246356902
0.00024388107118333642
0.00025214822613870384
0.0002576596627756154
0.0002741939726863501
0.00029072828259708476
0.0002934840009155406
0.0002852168459601733
0.0002741939726863501
0.0002686825360494386
0.0002686825360494386
0.0002549039444571596
0.00023561391622796914
0.000210812451361867
0.00019427814145113231
0.0001832552681773092
0.0001694766765850302
0.00014467521171892812
0.00011160659189745871
8.404940871290084e-05
7.02708171206219e-05
5.373650720988717e-05
3.169076066224089e-05
9.64501411459459e-06
-1.5156450751507488e-05
-2.6179324025330647e-05
-2.8935042343786426e-05
-3.4446478980697995e-05
-5.098078889143272e-05
-6.475938048371164e-05
-6.751509880216745e-05
-6.475938048371164e-05
-7.027081712062322e-05
-8.129369039444639e-05
-9.507228198672531e-05
-9.507228198672531e-05
-8.680512703135793e-05
-8.680512703135793e-05
-9.507228198672531e-05
-0.00010058371862363688
-8.404940871290214e-05
-7.57822537575348e-05
-7.302653543907902e-05
-7.57822537575348e-05
-7.57822537575348e-05
-6.751509880216745e-05
-4.8225070572976926e-05
-3.169076066224221e-05
-2.066788738841907e-05
-1.240073243305171e-05
4.133577477683014e-06
1.7912169069961946e-05
1.7912169069961946e-05
9.64501411459459e-06
-1.377859159228559e-06
-1.377859159228559e-06
4.133577477683014e-06
-1.240073243305171e-05
-4.8225070572976926e-05
-6.751509880216745e-05
-7.302653543907902e-05
-6.475938048371164e-05
-6.200366216525588e-05
-7.027081712062322e-05
-8.129369039444639e-05
-8.129369039444639e-05
-7.302653543907902e-05
-6.751509880216745e-05
-7.027081712062322e-05
-7.85379720759906e-05
-8.404940871290214e-05
-7.85379720759906e-05
-7.027081712062322e-05
-7.027081712062322e-05
-5.3736507209888505e-05
6.200366216525454e-05
0.0003568655222400236
0.0008308490730144192
0.0012993211871519031
0.0015473358358129234
0.0013902598916609437
0.0008639176928358884
0.0002852168459601733
-0.0001391637750820179
-0.0003403312123292903
-0.0003155297474631883
-0.00023561391622797047
-0.00018601098649576628
-0.00016396523994811996
-0.00015569808499275262
-0.0001584538033112084
-0.00015569808499275262
-0.00014467521171892948
-0.00013089662012665053
-0.00012814090180819475
-0.00013089662012665053
-0.00012814090180819475
-0.0001171180285343716
-0.00010885087357900426
-0.00010333943694209268
-0.00010885087357900426
-0.00010609515526054846
-9.231656366826955e-05
-7.85379720759906e-05
-7.57822537575348e-05
-8.404940871290214e-05
-7.302653543907902e-05
-5.3736507209888505e-05
-4.2713633936065354e-05
-4.2713633936065354e-05
-4.5469352254521147e-05
-3.169076066224221e-05
-9.64501411459592e-06
9.64501411459459e-06
2.3423605706873515e-05
3.169076066224089e-05
5.373650720988717e-05
8.956084534981241e-05
0.00012262946517128183
0.00013916377508201656
0.00015845380331120705
0.00018601098649576498
0.00021632388799877858
0.00024663678950179223
0.00026592681773098274
0.0002741939726863501
0.0002852168459601733
0.000301751155870908
0.0003127740291447311
0.000315529747463187
0.0003072625925078196
0.00029623971923399637
0.0002934840009155406
0.00029072828259708476
0.0002769496910048059
0.0002493925078202481
0.0002218353246356902
0.00020530101472495543
0.00019152242313267648
0.000172232394903486
0.00014191949340047234
0.00011436231021591448
8.956084534981241e-05
7.30265354390777e-05
5.373650720988717e-05
2.8935042343785094e-05
4.133577477683014e-06
-1.5156450751507488e-05
-2.066788738841907e-05
-2.6179324025330647e-05
-3.720219729915378e-05
-5.098078889143272e-05
-6.475938048371164e-05
-6.751509880216745e-05
-6.475938048371164e-05
-6.475938048371164e-05
-7.302653543907902e-05
-8.129369039444639e-05
-8.404940871290214e-05
-7.85379720759906e-05
-7.85379720759906e-05
-8.956084534981374e-05
-9.78280003051811e-05
-8.956084534981374e-05
-7.57822537575348e-05
-6.475938048371164e-05
-6.751509880216745e-05
-7.302653543907902e-05
-7.027081712062322e-05
-5.9247943846800084e-05
-4.5469352254521147e-05
-2.066788738841907e-05
-9.64501411459592e-06
4.133577477683014e-06
1.5156450751506162e-05
1.7912169069961946e-05
1.2400732433050376e-05
1.3778591592272275e-06
1.3778591592272275e-06
4.133577477683014e-06
-9.64501411459592e-06
-4.5469352254521147e-05
-6.751509880216745e-05
-7.027081712062322e-05
-6.751509880216745e-05
-6.475938048371164e-05
-7.302653543907902e-05
-8.129369039444639e-05
-8.680512703135793e-05
-7.57822537575348e-05
-6.751509880216745e-05
-6.751509880216745e-05
-7.302653543907902e-05
-7.302653543907902e-05
-6.751509880216745e-05
-6.475938048371164e-05
-6.200366216525588e-05
-5.3736507209888505e-05
3.169076066224089e-05
0.00027970540932326175
0.0007206203402761877
0.0012111382009613175
0.0015418243991760121
0.0015225343709468217
0.0010871308766308072
0.0004781171282520784
-1.240073243305171e-05
-0.0002852168459601746
-0.00030726259250782084
-0.00022734676127260308
-0.00017498811322194308
-0.00015569808499275262
-0.00015294236667429682
-0.00015569808499275262
-0.00014743093003738526
-0.0001336523384451063
-0.0001198737468528274
-0.0001226294651712832
-0.00013089662012665053
-0.00012538518348973897
-0.00011436231021591582
-0.00010333943694209268
-9.78280003051811e-05
-0.00010058371862363688
-9.78280003051811e-05
-8.680512703135793e-05
-7.302653543907902e-05
-7.027081712062322e-05
-7.302653543907902e-05
-7.302653543907902e-05
-6.200366216525588e-05
-4.8225070572976926e-05
-3.720219729915378e-05
-3.995791561760957e-05
-3.995791561760957e-05
-2.342360570687485e-05
1.5156450751506162e-05
2.3423605706873515e-05
3.444647898069667e-05
5.649222552834297e-05
8.956084534981241e-05
0.00012262946517128183
0.00014743093003738393
0.0001694766765850302
0.00019427814145113231
0.00022734676127260172
0.0002576596627756154
0.00027970540932326175
0.00029072828259708476
0.00030450687418936376
0.00032655262073701005
0.00034584264896620056
0.0003485983672846564
0.000340331212329289
0.00033206405737392166
0.00033206405737392166
0.00033206405737392166
0.00032104118410009855
0.00029623971923399637
0.00027143825436789435
0.0002493925078202481
0.00023561391622796914
0.0002190796063172344
0.00018876670481422076
0.00015294236667429551
0.0001253851834897376
0.00010885087357900291
9.507228198672396e-05
7.02708171206219e-05
3.9957915617608246e-05
2.066788738841773e-05
1.2400732433050376e-05
9.64501411459459e-06
-1.377859159228559e-06
-2.066788738841907e-05
-3.169076066224221e-05
-3.4446478980697995e-05
-3.169076066224221e-05
-3.4446478980697995e-05
-4.2713633936065354e-05
-5.098078889143272e-05
-4.8225070572976926e-05
-4.2713633936065354e-05
-4.2713633936065354e-05
-5.6492225528344285e-05
-6.200366216525588e-05
-5.6492225528344285e-05
-4.2713633936065354e-05
-3.995791561760957e-05
-3.995791561760957e-05
-4.2713633936065354e-05
-4.2713633936065354e-05
-3.169076066224221e-05
-1.5156450751507488e-05
4.133577477683014e-06
1.5156450751506162e-05
2.066788738841773e-05
3.169076066224089e-05
3.9957915617608246e-05
4.82250705729756e-05
4.271363393606403e-05
2.3423605706873515e-05
2.8935042343785094e-05
1.2400732433050376e-05
-2.066788738841907e-05
-4.2713633936065354e-05
-4.5469352254521147e-05
-3.4446478980697995e-05
-3.4446478980697995e-05
-4.5469352254521147e-05
-5.6492225528344285e-05
-5.098078889143272e-05
-3.995791561760957e-05
-3.995791561760957e-05
-4.5469352254521147e-05
-5.6492225528344285e-05
-5.6492225528344285e-05
-5.098078889143272e-05
-4.5469352254521147e-05
-4.2713633936065354e-05
-2.6179324025330647e-05
8.404940871290084e-05
0.00037064411383230263
0.0008446276646066979
0.001324122652018005
0.0015969387655451277
0.0014701757228961615
0.000949344960708018
0.0003430869306477448
-0.00010885087357900426
-0.00032655262073701135
-0.00030726259250782084
-0.0002190796063172357
-0.00016672095826657574
-0.00014743093003738526
-0.00014191949340047367
-0.00014467521171892948
-0.00014191949340047367
-0.00012814090180819475
-0.00011436231021591582
-0.00011160659189746003
-0.00011160659189746003
-0.00011160659189746003
-0.00010058371862363688
-8.680512703135793e-05
-8.680512703135793e-05
-9.231656366826955e-05
-8.680512703135793e-05
-7.85379720759906e-05
-6.751509880216745e-05
-6.475938048371164e-05
-6.475938048371164e-05
-6.200366216525588e-05
-5.3736507209888505e-05
-3.720219729915378e-05
-2.6179324025330647e-05
-2.6179324025330647e-05
-1.7912169069963278e-05
-4.133577477684346e-06
1.7912169069961946e-05
3.169076066224089e-05
3.9957915617608246e-05
5.098078889143139e-05
7.30265354390777e-05
0.00010609515526054714
0.00013916377508201656
0.00018049954985885336
0.00020805673304341124
0.00024112535286488067
0.00027143825436789435
0.0002824611276417174
0.0002934840009155406
0.00030450687418936376
0.00032104118410009855
0.000340331212329289
0.0003430869306477448
0.00033206405737392166
0.0003182854657816428
0.0003127740291447311
0.0003072625925078196
0.0002934840009155406
0.0002686825360494386
0.0002493925078202481
0.00023010247959105753
0.000210812451361867
0.00019427814145113231
0.00016396523994811866
0.00013089662012664922
0.00010609515526054714
8.956084534981241e-05
7.578225375753347e-05
5.649222552834297e-05
2.8935042343785094e-05
9.64501411459459e-06
1.3778591592272275e-06
-6.889295796140132e-06
-2.066788738841907e-05
-3.4446478980697995e-05
-4.2713633936065354e-05
-4.5469352254521147e-05
-4.2713633936065354e-05
-4.5469352254521147e-05
-5.098078889143272e-05
-5.9247943846800084e-05
-6.475938048371164e-05
-5.9247943846800084e-05
-5.6492225528344285e-05
-6.475938048371164e-05
-7.027081712062322e-05
-6.751509880216745e-05
-5.6492225528344285e-05
-4.8225070572976926e-05
-5.098078889143272e-05
-5.3736507209888505e-05
-5.098078889143272e-05
-4.2713633936065354e-05
-2.8935042343786426e-05
-1.7912169069963278e-05
-6.889295796140132e-06
6.8892957961388014e-06
2.066788738841773e-05
3.169076066224089e-05
3.169076066224089e-05
2.3423605706873515e-05
1.2400732433050376e-05
9.64501411459459e-06
1.7912169069961946e-05
1.2400732433050376e-05
-2.6179324025330647e-05
-5.098078889143272e-05
-5.3736507209888505e-05
-5.6492225528344285e-05
-5.9247943846800084e-05
-6.475938048371164e-05
-6.200366216525588e-05
-5.6492225528344285e-05
-5.098078889143272e-05
-5.6492225528344285e-05
-6.751509880216745e-05
-6.475938048371164e-05
-5.6492225528344285e-05
-5.3736507209888505e-05
-5.3736507209888505e-05
-5.098078889143272e-05
-4.133577477684346e-06
0.00017498811322194178
0.000547010086213473
0.0010430393835355147
0.0014591528496223384
0.001602450202182039
0.001324122652018005
0.0007343989318684667
0.00016672095826657444
-0.0001997895780880452
-0.0003100183108262768
-0.00024112535286488197
-0.00017498811322194308
-0.00015294236667429682
-0.00014743093003738526
-0.00014467521171892948
-0.0001336523384451063
-0.0001198737468528274
-0.00011160659189746003
-0.00010609515526054846
-0.00010885087357900426
-0.00010885087357900426
-9.231656366826955e-05
-8.129369039444639e-05
-8.404940871290214e-05
-8.956084534981374e-05
-8.956084534981374e-05
-7.57822537575348e-05
-6.200366216525588e-05
-6.200366216525588e-05
-6.475938048371164e-05
-6.200366216525588e-05
-5.098078889143272e-05
-3.720219729915378e-05
-2.8935042343786426e-05
-2.6179324025330647e-05
-2.342360570687485e-05
-1.240073243305171e-05
9.64501411459459e-06
2.8935042343785094e-05
3.169076066224089e-05
3.9957915617608246e-05
6.200366216525454e-05
9.507228198672396e-05
0.0001253851834897376
0.00014743093003738393
0.00016396523994811866
0.00018601098649576498
0.0002135681696803228
0.00024112535286488067
0.000263171099412527
0.0002741939726863501
0.00029072828259708476
0.00035410980392156795
0.00037064411383230263
0.0003816669871061258
0.000392689860379949
0.00041197988860913943
0.00041473560692759526
0.0003954455786984048
0.000365132677195391
0.0003375754940108332
0.00031001831082627527
0.0002879725642786291
0.00026592681773098274
0.00023561391622796914
0.0001970338597695881
0.0001556980849927513
0.0001253851834897376
0.00010058371862363556
7.578225375753347e-05
4.546935225451981e-05
2.066788738841773e-05
1.5156450751506162e-05
9.64501411459459e-06
-6.889295796140132e-06
-2.6179324025330647e-05
-3.995791561760957e-05
-3.720219729915378e-05
-3.4446478980697995e-05
-3.995791561760957e-05
-5.098078889143272e-05
-5.9247943846800084e-05
-5.6492225528344285e-05
-5.098078889143272e-05
-5.098078889143272e-05
-6.200366216525588e-05
-6.751509880216745e-05
-3.169076066224221e-05
8.68051270313566e-05
0.00029072828259708476
0.0006214144808117793
0.0011009094682230861
0.0015721373006790259
0.0017788161745632097
0.001423328511482413
0.0005111857480735478
-0.000370644113832304
-0.000668261692225529
-0.0005139414663920051
-0.00032379690241855563
-0.00021356816968032413
-0.0001777438315403989
-0.0001612095216296642
-0.0001391637750820179
-0.0001171180285343716
-0.00011436231021591582
-0.00011436231021591582
-0.00011436231021591582
-0.00010333943694209268
-8.680512703135793e-05
-8.129369039444639e-05
-8.680512703135793e-05
-8.956084534981374e-05
-8.129369039444639e-05
-6.751509880216745e-05
-5.9247943846800084e-05
-6.200366216525588e-05
-5.098078889143272e-05
-3.169076066224221e-05
-2.066788738841907e-05
-1.240073243305171e-05
-6.889295796140132e-06
1.3778591592272275e-06
2.3423605706873515e-05
5.098078889143139e-05
7.02708171206219e-05
8.404940871290084e-05
0.00010609515526054714
0.00013640805676356078
0.000172232394903486
0.00019978957808804387
0.0002190796063172344
0.00024112535286488067
0.0002741939726863501
0.0003072625925078196
0.0003293083390554659
0.0003430869306477448
0.00035135408560311223
0.00036788839551384685
0.00038717842374303736
0.000392689860379949
0.00038993414206149314
0.00037891126878767
0.00037064411383230263
0.00037064411383230263
0.000365132677195391
0.0003430869306477448
0.00031001831082627527
0.0002879725642786291
0.00027143825436789435
0.00025214822613870384
0.00022459104295414594
0.00019152242313267648
0.00016120952162966288
0.00014191949340047234
0.0001253851834897376
0.00010609515526054714
7.853797207598924e-05
5.373650720988717e-05
3.9957915617608246e-05
3.9957915617608246e-05
2.8935042343785094e-05
1.2400732433050376e-05
-1.377859159228559e-06
-4.133577477684346e-06
-1.377859159228559e-06
1.3778591592272275e-06
-6.889295796140132e-06
-1.7912169069963278e-05
-1.7912169069963278e-05
-4.133577477684346e-06
4.133577477683014e-06
4.133577477683014e-06
-4.133577477684346e-06
-1.377859159228559e-06
6.8892957961388014e-06
1.2400732433050376e-05
1.2400732433050376e-05
4.133577477683014e-06
-1.377859159228559e-06
4.133577477683014e-06
1.5156450751506162e-05
4.133577477683014e-06
-1.377859159228559e-06
-4.133577477684346e-06
4.133577477683014e-06
1.3778591592272275e-06
-1.240073243305171e-05
-2.342360570687485e-05
-2.342360570687485e-05
-1.7912169069963278e-05
-1.5156450751507488e-05
-1.5156450751507488e-05
-1.240073243305171e-05
-9.64501411459592e-06
1.3778591592272275e-06
9.64501411459459e-06
1.2400732433050376e-05
6.8892957961388014e-06
6.8892957961388014e-06
2.8935042343785094e-05
5.098078889143139e-05
5.9247943846798756e-05
5.373650720988717e-05
5.098078889143139e-05
5.9247943846798756e-05
5.9247943846798756e-05
4.546935225451981e-05
2.3423605706873515e-05
4.133577477683014e-06
-9.64501411459592e-06
-2.342360570687485e-05
-3.4446478980697995e-05
-4.8225070572976926e-05
-6.475938048371164e-05
-7.027081712062322e-05
-6.751509880216745e-05
-6.751509880216745e-05
-7.302653543907902e-05
-7.85379720759906e-05
-7.57822537575348e-05
-6.751509880216745e-05
-6.200366216525588e-05
-7.027081712062322e-05
-7.57822537575348e-05
-7.027081712062322e-05
-4.2713633936065354e-05
7.02708171206219e-05
0.0003348197756923775
0.0007426660868238338
0.0011532681162737465
0.0014123056382085901
0.0013709698634317533
0.000971390707255664
0.00042024704356450677
-1.5156450751507488e-05
-0.00024388107118333775
-0.0002521482261387052
-0.00019152242313267784
-0.00016947667658503157
-0.00016672095826657574
-0.0001584538033112084
-0.00014467521171892948
-0.0001336523384451063
-0.0001364080567635621
-0.00014191949340047367
-0.00014191949340047367
-0.0001171180285343716
-0.00011436231021591582
-0.0001226294651712832
-0.0001226294651712832
-0.00010885087357900426
-0.00010058371862363688
-9.78280003051811e-05
-0.00010333943694209268
-0.00010609515526054846
-9.507228198672531e-05
-8.129369039444639e-05
-7.57822537575348e-05
-7.57822537575348e-05
-7.85379720759906e-05
-7.302653543907902e-05
-5.6492225528344285e-05
-4.2713633936065354e-05
-4.2713633936065354e-05
-3.995791561760957e-05
-2.6179324025330647e-05
-6.889295796140132e-06
1.2400732433050376e-05
2.066788738841773e-05
3.169076066224089e-05
4.82250705729756e-05
7.578225375753347e-05
0.00010333943694209132
0.00011987374685282605
0.00012814090180819342
0.00013916377508201656
0.0001556980849927513
0.00017498811322194178
0.00018601098649576498
0.0001832552681773092
0.00017774383154039756
0.00018876670481422076
0.00020254529640649968
0.00020530101472495543
0.00019427814145113231
0.00018049954985885336
0.00017774383154039756
0.00017498811322194178
0.00016396523994811866
0.00014467521171892812
0.0001253851834897376
0.00011436231021591448
0.00010609515526054714
9.782800030517979e-05
7.853797207598924e-05
5.098078889143139e-05
3.169076066224089e-05
2.3423605706873515e-05
1.7912169069961946e-05
1.3778591592272275e-06
-2.066788738841907e-05
-3.4446478980697995e-05
-3.720219729915378e-05
-4.2713633936065354e-05
-4.8225070572976926e-05
-6.200366216525588e-05
-7.85379720759906e-05
-8.129369039444639e-05
-7.027081712062322e-05
-7.57822537575348e-05
-8.680512703135793e-05
-9.78280003051811e-05
-9.231656366826955e-05
-9.507228198672531e-05
-0.00010058371862363688
-0.0001171180285343716
-0.0001226294651712832
-0.00010885087357900426
-9.507228198672531e-05
-9.231656366826955e-05
-9.507228198672531e-05
-9.507228198672531e-05
-8.129369039444639e-05
-7.027081712062322e-05
-7.027081712062322e-05
-6.475938048371164e-05
-4.8225070572976926e-05
-2.6179324025330647e-05
-4.133577477684346e-06
4.133577477683014e-06
1.3778591592272275e-06
-1.377859159228559e-06
-1.377859159228559e-06
-4.133577477684346e-06
-9.64501411459592e-06
-2.6179324025330647e-05
-5.9247943846800084e-05
-8.404940871290214e-05
-8.956084534981374e-05
-9.78280003051811e-05
-0.00010333943694209268
-0.00011160659189746003
-0.00011436231021591582
-0.00011160659189746003
-0.00010885087357900426
-0.00011160659189746003
-0.0001198737468528274
-0.00012538518348973897
-0.0001198737468528274
-0.00011160659189746003
-0.0001171180285343716
-0.00012538518348973897
-0.0001171180285343716
-5.3736507209888505e-05
0.00012262946517128183
0.0004422927901121532
0.0008363605096513305
0.0011422452429999228
0.0012138939192797731
0.0009410778057526506
0.0004615828183413437
2.066788738841773e-05
-0.00027143825436789566
-0.0003458426489662019
-0.00027970540932326305
-0.0002218353246356915
-0.0001997895780880452
-0.00019427814145113364
-0.00018601098649576628
-0.0001777438315403989
-0.00016947667658503157
-0.00016672095826657574
