-4.2713633936065354e-05
-1.5156450751507488e-05
2.3423605706873515e-05
3.9957915617608246e-05
2.8935042343785094e-05
-3.169076066224221e-05
-3.4446478980697995e-05
-2.6179324025330647e-05
-2.8935042343786426e-05
-5.3736507209888505e-05
-8.680512703135793e-05
-0.00010609515526054846
-0.00011436231021591582
-0.00012538518348973897
-0.0001336523384451063
-0.00014743093003738526
-0.00015294236667429682
-0.00014191949340047367
-0.0001364080567635621
-0.00014191949340047367
-0.000150186648355841
-0.00015294236667429682
-0.00014743093003738526
-0.0001336523384451063
-0.0001391637750820179
-0.000150186648355841
-0.00015294236667429682
-0.00013089662012665053
-5.9247943846800084e-05
7.30265354390777e-05
0.00023561391622796914
0.00040371273365377215
0.0005828344243533982
0.0008363605096513305
0.0011450009613183788
0.0012662525673304335
0.0008639176928358884
-0.00019152242313267784
-0.001585915892271306
-0.0022555554436560626
-0.002186662485694668
-0.001960693583581293
-0.001765037582970932
-0.0015363129625391013
-0.0012386953841458767
-0.0008528948195620666
-0.0005194529030289164
-0.00032655262073701135
-0.0001997895780880452
-0.0001364080567635621
-0.00010885087357900426
-8.680512703135793e-05
-5.9247943846800084e-05
-2.6179324025330647e-05
1.3778591592272275e-06
1.7912169069961946e-05
2.3423605706873515e-05
2.8935042343785094e-05
4.546935225451981e-05
6.200366216525454e-05
7.02708171206219e-05
7.30265354390777e-05
7.853797207598924e-05
8.956084534981241e-05
0.00010609515526054714
0.00011987374685282605
0.0001253851834897376
0.00012814090180819342
0.00013916377508201656
0.00016120952162966288
0.00018049954985885336
0.00018601098649576498
0.00019152242313267648
0.00023561391622796914
0.0002549039444571596
0.000263171099412527
0.00027143825436789435
0.00029072828259708476
0.0003182854657816428
0.00034584264896620056
0.0003623769588769353
0.00036788839551384685
0.0003844227054245816
0.00041197988860913943
0.0004340256351567857
0.0004505599450675205
0.0004615828183413437
0.0004670942549782553
0.0004808728465705341
0.0005001628747997245
0.000508430029755092
0.0004974071564812689
0.0004891400015259016
0.0004891400015259016
0.0004918957198443572
0.0004808728465705341
0.0004615828183413437
0.0004340256351567857
0.00041473560692759526
0.0003982012970168605
0.00036788839551384685
0.0003182854657816428
0.000263171099412527
0.000210812451361867
0.00016672095826657444
0.00011987374685282605
6.751509880216611e-05
1.5156450751506162e-05
-2.8935042343786426e-05
-5.6492225528344285e-05
-7.302653543907902e-05
-9.78280003051811e-05
-0.00012814090180819475
-0.00014743093003738526
-0.000150186648355841
-0.000150186648355841
-0.00016396523994811996
-0.00018049954985885472
-0.00019152242313267784
-0.00019152242313267784
-0.00018601098649576628
-0.00018876670481422206
-0.00019703385976958942
-0.00020254529640650095
-0.00019703385976958942
-0.00018601098649576628
-0.00018601098649576628
-0.00019703385976958942
-0.00020530101472495681
-0.00020530101472495681
-0.00019703385976958942
-0.00018601098649576628
-0.00018601098649576628
-0.00019703385976958942
-0.00019703385976958942
-0.00018876670481422206
-0.00018049954985885472
-0.00018325526817731047
-0.00018876670481422206
-0.00018601098649576628
-0.0001777438315403989
-0.00017223239490348733
-0.00018049954985885472
-0.0001777438315403989
-0.00016947667658503157
-0.0001584538033112084
-0.00015569808499275262
-0.00016672095826657574
-0.00016947667658503157
-0.00016396523994811996
-0.00015294236667429682
-0.000150186648355841
-0.0001584538033112084
-0.00016947667658503157
-0.00016947667658503157
-0.0001584538033112084
-0.00015569808499275262
-0.00016672095826657574
-0.0001777438315403989
-0.0001777438315403989
-0.00016947667658503157
-0.00015569808499275262
-0.00014743093003738526
-0.00014743093003738526
-0.00014467521171892948
-0.00013089662012665053
-0.0001198737468528274
-0.0001226294651712832
-0.0001198737468528274
-9.507228198672531e-05
-4.8225070572976926e-05
-1.5156450751507488e-05
-1.7912169069963278e-05
-4.2713633936065354e-05
-7.027081712062322e-05
-7.57822537575348e-05
-7.302653543907902e-05
-8.129369039444639e-05
-0.00010058371862363688
-0.0001226294651712832
-0.00014191949340047367
-0.00015294236667429682
-0.00016947667658503157
-0.00018876670481422206
-0.0001997895780880452
-0.00020254529640650095
-0.00019427814145113364
-0.00019152242313267784
-0.00019703385976958942
-0.0002080567330434125
-0.00020530101472495681
-0.00019427814145113364
-0.00018876670481422206
-0.00019427814145113364
-0.00020530101472495681
-0.00020530101472495681
-0.00019703385976958942
-0.00016396523994811996
-7.57822537575348e-05
7.02708171206219e-05
0.00024112535286488067
0.00042024704356450677
0.0006076358892195001
0.000855650537880521
0.001125710933089188
0.0011229552147707324
0.0005332314946211942
-0.0007343989318684678
-0.002059899443045701
-0.002316181246662089
-0.002059899443045701
-0.001842197695887694
-0.0016134730754558636
-0.0013379012436102852
-0.000963123552300298
-0.0006131473258564133
-0.00039268986037995033
-0.0002521482261387052
-0.00018325526817731047
-0.0001584538033112084
-0.00012814090180819475
-8.956084534981374e-05
-5.9247943846800084e-05
-4.2713633936065354e-05
-3.4446478980697995e-05
-2.066788738841907e-05
1.3778591592272275e-06
2.3423605706873515e-05
3.169076066224089e-05
2.8935042343785094e-05
3.444647898069667e-05
5.098078889143139e-05
7.02708171206219e-05
8.129369039444505e-05
8.68051270313566e-05
9.23165636682682e-05
0.00010885087357900291
0.00013089662012664922
0.00014743093003738393
0.0001556980849927513
0.00016672095826657444
0.0001832552681773092
0.00020530101472495543
0.0002218353246356902
0.00023561391622796914
0.00024663678950179223
0.0002741939726863501
0.00030450687418936376
0.00033206405737392166
0.00035135408560311223
0.00036788839551384685
0.00038993414206149314
0.00042300276188296266
0.0004505599450675205
0.0004643385366597993
0.0004781171282520784
0.0004946514381628131
0.0005222086213473709
0.0005414986495765614
0.000547010086213473
0.0005387429312581057
0.0005332314946211942
0.0005387429312581057
0.0005414986495765614
0.0005277200579842825
0.0005056743114366363
0.00048362856488898997
0.0004670942549782553
0.0004505599450675205
0.00041749132524605104
0.0003623769588769353
0.000301751155870908
0.00024663678950179223
0.0001970338597695881
0.00013916377508201656
7.02708171206219e-05
6.8892957961388014e-06
-7.302653543907902e-05
-9.78280003051811e-05
-0.00012814090180819475
-0.0001612095216296642
-0.00018049954985885472
-0.00018876670481422206
-0.00019703385976958942
-0.00021632388799877996
-0.00023561391622797047
-0.00024112535286488197
-0.00023836963454642628
-0.00023561391622797047
-0.00024112535286488197
-0.0002521482261387052
-0.0002604153810940725
-0.0002549039444571609
-0.0002466367895017936
-0.0002466367895017936
-0.0002549039444571609
-0.00026592681773098404
-0.0002604153810940725
-0.00024112535286488197
-0.00023285819790951464
-0.00024112535286488197
-0.0002466367895017936
-0.00023836963454642628
-0.00023010247959105888
-0.0002190796063172357
-0.0002190796063172357
-0.00022459104295414727
-0.0002190796063172357
-0.00020530101472495681
-0.00019703385976958942
-0.00019703385976958942
-0.0001997895780880452
-0.0001997895780880452
-0.00019152242313267784
-0.0001777438315403989
-0.0001777438315403989
-0.00018601098649576628
-0.00018601098649576628
-0.00017498811322194308
-0.00016396523994811996
-0.00016672095826657574
-0.00017498811322194308
-0.00018049954985885472
-0.00017498811322194308
-0.00016672095826657574
-0.00016947667658503157
-0.00017223239490348733
-0.00016396523994811996
-0.000150186648355841
-0.0001364080567635621
-0.00013089662012665053
-0.0001391637750820179
-0.00014467521171892948
-0.00012814090180819475
-9.231656366826955e-05
-5.3736507209888505e-05
-3.995791561760957e-05
-4.8225070572976926e-05
-5.9247943846800084e-05
-7.57822537575348e-05
-8.129369039444639e-05
-8.680512703135793e-05
-0.00010609515526054846
-0.0001198737468528274
-0.00013089662012665053
-0.00014191949340047367
-0.00018601098649576628
-0.0002080567330434125
-0.0002108124513618684
-0.00020530101472495681
-0.00020530101472495681
-0.00021632388799877996
-0.0002218353246356915
-0.0002190796063172357
-0.0002080567330434125
-0.0002108124513618684
-0.0002190796063172357
-0.00023010247959105888
-0.00022734676127260308
-0.00021356816968032413
-0.0002080567330434125
-0.00018049954985885472
-8.680512703135793e-05
7.853797207598924e-05
0.00027143825436789435
0.0004478042267490647
0.0006021244525825888
0.0008032918898298613
0.000998947890440222
0.0008776962844281674
0.00016120952162966288
-0.0011367338063630126
-0.0023712956130312046
-0.0027130046845197232
-0.0025035700923170825
-0.0022224868238345926
-0.0019827393301289392
-0.0017374803997863744
-0.0014260842298008704
-0.0010209936369878696
-0.0006407045090409712
-0.00040922417029068495
-0.0002686825360494398
-0.00019427814145113364
-0.000150186648355841
-0.00010333943694209268
-6.751509880216745e-05
-5.098078889143272e-05
-3.720219729915378e-05
-1.240073243305171e-05
1.5156450751506162e-05
2.6179324025329308e-05
3.169076066224089e-05
3.169076066224089e-05
3.9957915617608246e-05
6.200366216525454e-05
8.129369039444505e-05
8.68051270313566e-05
8.68051270313566e-05
9.507228198672396e-05
0.00011436231021591448
0.00013640805676356078
0.00014467521171892812
0.00014743093003738393
0.00016396523994811866
0.00019152242313267648
0.0002135681696803228
0.00022734676127260172
0.00023285819790951333
0.00025214822613870384
0.00027970540932326175
0.00031001831082627527
0.0003293083390554659
0.00034584264896620056
0.0003954455786984048
0.00043126991683832994
0.0004588271000228878
0.0004808728465705341
0.0004946514381628131
0.0005194529030289152
0.0005525215228503846
0.0005745672693980309
0.0005800787060349425
0.0005800787060349425
0.0005883458609903097
0.000599368734264133
0.0006021244525825888
0.000585590142671854
0.0005663001144426635
0.0005525215228503846
0.0005387429312581057
0.0005222086213473709
0.0004891400015259016
0.0004340256351567857
0.0003816669871061258
0.00032655262073701005
0.00027143825436789435
0.00020254529640649968
0.0001253851834897376
5.9247943846798756e-05
9.64501411459459e-06
-2.6179324025330647e-05
-6.475938048371164e-05
-0.00010885087357900426
-0.000150186648355841
-0.00017223239490348733
-0.00018049954985885472
-0.00018876670481422206
-0.0002108124513618684
-0.00022734676127260308
-0.00023010247959105888
-0.00022734676127260308
-0.00022734676127260308
-0.00023836963454642628
-0.0002466367895017936
-0.0002466367895017936
-0.00023836963454642628
-0.00023561391622797047
-0.00024112535286488197
-0.00024939250782024937
-0.0002521482261387052
-0.00024388107118333775
-0.00023285819790951464
-0.00023285819790951464
-0.00024388107118333775
-0.00024939250782024937
-0.00023836963454642628
-0.00022734676127260308
-0.0002218353246356915
-0.00023010247959105888
-0.00022734676127260308
-0.00021356816968032413
-0.00020254529640650095
-0.00019427814145113364
-0.00019703385976958942
-0.0001997895780880452
-0.00019152242313267784
-0.00017498811322194308
-0.00016672095826657574
-0.00017223239490348733
-0.0001777438315403989
-0.00017498811322194308
-0.00014743093003738526
-0.00015569808499275262
-0.00016396523994811996
-0.00016396523994811996
-0.00015294236667429682
-0.00014743093003738526
-0.000150186648355841
-0.00015569808499275262
-0.00014743093003738526
-0.00012814090180819475
-0.00011436231021591582
-0.00010885087357900426
-0.00011160659189746003
-0.00011436231021591582
-0.00010609515526054846
-8.129369039444639e-05
-5.098078889143272e-05
-3.169076066224221e-05
-2.066788738841907e-05
-1.5156450751507488e-05
-2.066788738841907e-05
-3.720219729915378e-05
-5.9247943846800084e-05
-7.302653543907902e-05
-7.57822537575348e-05
-7.57822537575348e-05
-8.404940871290214e-05
-0.00010885087357900426
-0.0001364080567635621
-0.00015569808499275262
-0.0001612095216296642
-0.0001584538033112084
-0.00017223239490348733
-0.00018601098649576628
-0.00018601098649576628
-0.00018049954985885472
-0.00017498811322194308
-0.00017223239490348733
-0.00018049954985885472
-0.00018325526817731047
-0.00017498811322194308
-0.00017223239490348733
-0.00017498811322194308
-0.00018049954985885472
-0.00014467521171892948
-1.7912169069963278e-05
0.000172232394903486
0.00035410980392156795
0.0005029185931181804
0.0006655059739070718
0.0008749405661097116
0.0010182379186694126
0.000767467551689936
-4.2713633936065354e-05
-0.001324122652018006
-0.00238782992294194
-0.0026000202334630356
-0.002368539894712749
-0.0021150138094148166
-0.0018862891889829868
-0.0016134730754558636
-0.0012579854123750671
-0.0008280933546959645
-0.0005029185931181816
-0.0003127740291447324
-0.00019427814145113364
-0.00012814090180819475
-8.680512703135793e-05
-3.4446478980697995e-05
-1.5156450751507488e-05
1.5156450751506162e-05
3.9957915617608246e-05
5.373650720988717e-05
5.373650720988717e-05
5.373650720988717e-05
6.751509880216611e-05
8.68051270313566e-05
0.00010058371862363556
0.00010058371862363556
0.00010058371862363556
0.00011436231021591448
0.00013365233844510492
0.00014743093003738393
0.00015294236667429551
0.00015845380331120705
0.00017498811322194178
0.00020254529640649968
0.00022459104295414594
0.00023561391622796914
0.00024388107118333642
0.0002576596627756154
0.0002852168459601733
0.0003127740291447311
0.0003293083390554659
0.000340331212329289
0.0003623769588769353
0.000392689860379949
0.00042024704356450677
0.0004422927901121532
0.000456071381704432
0.00047536140993362247
0.0005029185931181804
0.0005332314946211942
0.0005497658045319286
0.0005552772411688404
0.0005635443961242077
0.0005800787060349425
0.0005911015793087656
0.0005911015793087656
0.0005773229877164866
0.0005635443961242077
0.0005552772411688404
0.000547010086213473
0.0005332314946211942
0.0005056743114366363
0.0004670942549782553
0.00042851419851987416
0.00038717842374303736
0.0003348197756923775
0.00027143825436789435
0.00020254529640649968
0.00013916377508201656
9.23165636682682e-05
4.82250705729756e-05
4.133577477683014e-06
-4.2713633936065354e-05
-8.129369039444639e-05
-0.00010058371862363688
-0.00011436231021591582
-0.0001336523384451063
-0.00015294236667429682
-0.00016672095826657574
-0.00016672095826657574
-0.00016396523994811996
-0.00017223239490348733
-0.00018325526817731047
-0.00019152242313267784
-0.00018325526817731047
-0.00018325526817731047
-0.00019152242313267784
-0.0001997895780880452
-0.00019703385976958942
-0.00018876670481422206
-0.00018601098649576628
-0.00019427814145113364
-0.00020254529640650095
-0.0001997895780880452
-0.00019152242313267784
-0.00018325526817731047
-0.00018325526817731047
-0.00018876670481422206
-0.00018325526817731047
-0.00016947667658503157
-0.0001584538033112084
-0.0001584538033112084
-0.00016396523994811996
-0.00016396523994811996
-0.00015569808499275262
-0.00014467521171892948
-0.00014467521171892948
-0.000150186648355841
-0.00014743093003738526
-0.0001391637750820179
-0.00012814090180819475
-0.00012814090180819475
-0.0001364080567635621
-0.0001391637750820179
-0.00013089662012665053
-0.0001198737468528274
-0.0001171180285343716
-0.00012538518348973897
-0.00013089662012665053
-0.00012538518348973897
-0.00010885087357900426
-9.231656366826955e-05
-8.680512703135793e-05
-8.956084534981374e-05
-7.85379720759906e-05
-6.200366216525588e-05
-5.6492225528344285e-05
-5.098078889143272e-05
-3.4446478980697995e-05
-1.377859159228559e-06
2.3423605706873515e-05
3.169076066224089e-05
1.5156450751506162e-05
-1.7912169069963278e-05
-3.4446478980697995e-05
-3.169076066224221e-05
-2.8935042343786426e-05
-3.995791561760957e-05
-6.475938048371164e-05
-9.231656366826955e-05
-0.00010609515526054846
-0.00011436231021591582
-0.0001336523384451063
-0.00014743093003738526
-0.0001612095216296642
-0.0001612095216296642
-0.000150186648355841
-0.00014743093003738526
-0.00015294236667429682
-0.00016396523994811996
-0.0001612095216296642
-0.000150186648355841
-0.0001584538033112084
-0.00016672095826657574
-0.00016396523994811996
-0.00012538518348973897
-1.5156450751507488e-05
0.00014743093003738393
0.0003182854657816428
0.00048362856488898997
0.0006544831006332488
0.0008666734111543443
0.0010320165102616916
0.0008997420309758136
0.00024388107118333642
-0.0009410778057526519
-0.00212603668268864
-0.0024925472190432604
-0.0023244484016174565
-0.002095723781185626
-0.0018449534142061495
-0.0015418243991760134
-0.0011532681162737474
-0.000745421805142291
-0.000447804226749066
-0.0002631710994125282
-0.0001612095216296642
-0.00010885087357900426
-8.129369039444639e-05
-5.9247943846800084e-05
-3.169076066224221e-05
4.133577477683014e-06
2.3423605706873515e-05
3.169076066224089e-05
3.444647898069667e-05
3.9957915617608246e-05
5.649222552834297e-05
7.30265354390777e-05
8.129369039444505e-05
8.129369039444505e-05
8.68051270313566e-05
0.00010058371862363556
0.00011711802853437029
0.00012814090180819342
0.00013089662012664922
0.00013916377508201656
0.00015845380331120705
0.0001832552681773092
0.00019427814145113231
0.00019978957808804387
0.0002135681696803228
0.00023285819790951333
0.00026041538109407124
0.00027970540932326175
0.0002879725642786291
0.0002989954375524522
0.00032655262073701005
0.0003568655222400236
0.0003816669871061258
0.000392689860379949
0.0004064684519722279
0.00042851419851987416
0.0004615828183413437
0.0004863842832074457
0.0004974071564812689
0.0005056743114366363
0.0005222086213473709
0.0005387429312581057
0.0005525215228503846
0.0005497658045319286
0.0005414986495765614
0.0005442543678950173
0.0005387429312581057
0.0005222086213473709
0.0004946514381628131
0.000469849973296711
0.0004478042267490647
0.00042024704356450677
0.00037891126878767
0.00032104118410009855
0.00026041538109407124
0.00020530101472495543
0.00016120952162966288
0.00011160659189745871
5.649222552834297e-05
9.64501411459459e-06
-2.342360570687485e-05
-4.5469352254521147e-05
-6.751509880216745e-05
-9.78280003051811e-05
-0.0001226294651712832
-0.00013089662012665053
-0.0001336523384451063
-0.0001336523384451063
-0.00014743093003738526
-0.00016396523994811996
-0.00016672095826657574
-0.0001584538033112084
-0.00015294236667429682
-0.0001584538033112084
-0.00016947667658503157
-0.00017223239490348733
-0.00016672095826657574
-0.0001584538033112084
-0.0001612095216296642
-0.00016947667658503157
-0.00016947667658503157
-0.00016396523994811996
-0.00015294236667429682
-0.00015294236667429682
-0.0001612095216296642
-0.00016672095826657574
-0.0001584538033112084
-0.00014743093003738526
-0.00014467521171892948
-0.000150186648355841
-0.00015569808499275262
-0.00015294236667429682
-0.00014467521171892948
-0.0001364080567635621
-0.00014191949340047367
-0.000150186648355841
-0.00014467521171892948
-0.0001336523384451063
-0.00012538518348973897
-0.00012814090180819475
-0.0001336523384451063
-0.0001336523384451063
-0.0001226294651712832
-0.00011160659189746003
-0.00011436231021591582
-0.0001226294651712832
-0.00012538518348973897
-0.0001198737468528274
-0.00011436231021591582
-0.00011436231021591582
-0.0001226294651712832
-0.00012538518348973897
-8.404940871290214e-05
-7.302653543907902e-05
-7.57822537575348e-05
-7.57822537575348e-05
-6.200366216525588e-05
-4.8225070572976926e-05
-2.6179324025330647e-05
-1.377859159228559e-06
2.066788738841773e-05
3.169076066224089e-05
3.444647898069667e-05
2.3423605706873515e-05
-4.133577477684346e-06
-2.342360570687485e-05
-2.8935042343786426e-05
-2.8935042343786426e-05
-3.169076066224221e-05
-5.3736507209888505e-05
-8.680512703135793e-05
-0.00011160659189746003
-0.0001226294651712832
-0.00012814090180819475
-0.0001336523384451063
-0.00014467521171892948
-0.000150186648355841
-0.0001391637750820179
-0.0001336523384451063
-0.0001364080567635621
-0.00014191949340047367
-0.00014743093003738526
-0.00014467521171892948
-0.0001364080567635621
-0.0001364080567635621
-0.00014743093003738526
-0.00014743093003738526
-8.680512703135793e-05
5.098078889143139e-05
0.00022734676127260172
0.0003954455786984048
0.000547010086213473
0.0007343989318684667
0.0009658792706187528
0.001089886594949263
0.0007812461432822147
-9.78280003051811e-05
-0.0014371071030746935
-0.002313425528343633
-0.002368539894712749
-0.0021425709925993745
-0.001919357808804456
-0.0016685874418249794
-0.001351679835202564
-0.0009383220874341961
-0.0005690558327611206
-0.0003403312123292903
-0.0002080567330434125
-0.00013089662012665053
-8.129369039444639e-05
-5.098078889143272e-05
-3.169076066224221e-05
-9.64501411459592e-06
1.5156450751506162e-05
3.9957915617608246e-05
5.649222552834297e-05
5.9247943846798756e-05
5.9247943846798756e-05
7.02708171206219e-05
8.956084534981241e-05
0.00010609515526054714
0.00010609515526054714
0.00011987374685282605
0.00013640805676356078
0.00015294236667429551
0.00015845380331120705
0.00016396523994811866
0.00017498811322194178
0.00019152242313267648
0.0002135681696803228
0.00022734676127260172
0.00023285819790951333
0.0002493925078202481
0.0002741939726863501
0.0002989954375524522
0.000315529747463187
0.00032379690241855427
0.0003348197756923775
0.0003623769588769353
0.0003954455786984048
0.00041749132524605104
0.00043126991683832994
0.0004422927901121532
0.0004670942549782553
0.0004974071564812689
0.0005166971847104594
0.0005222086213473709
0.0005222086213473709
0.0005332314946211942
0.0005497658045319286
0.0005580329594872961
0.0005497658045319286
0.0005387429312581057
0.0005332314946211942
0.0005332314946211942
0.0005249643396658268
0.0005001628747997245
0.000469849973296711
0.0004422927901121532
0.0004092241702906837
0.00037064411383230263
0.0003182854657816428
0.0002549039444571596
0.0001970338597695881
0.00014743093003738393
0.00010609515526054714
6.200366216525454e-05
1.2400732433050376e-05
-2.8935042343786426e-05
-5.3736507209888505e-05
-6.751509880216745e-05
-8.680512703135793e-05
-0.00011160659189746003
-0.00012814090180819475
-0.0001336523384451063
-0.00013089662012665053
-0.0001391637750820179
-0.000150186648355841
-0.0001612095216296642
-0.0001612095216296642
-0.00015294236667429682
-0.000150186648355841
-0.00015569808499275262
-0.00016396523994811996
-0.00016396523994811996
-0.00015294236667429682
-0.00014467521171892948
-0.000150186648355841
-0.0001612095216296642
-0.00015294236667429682
-0.00014191949340047367
-0.00014191949340047367
-0.000150186648355841
-0.000150186648355841
-0.0001391637750820179
-0.00012814090180819475
-0.00012814090180819475
-0.0001336523384451063
-0.0001364080567635621
-0.00012814090180819475
-0.00011436231021591582
-0.00011160659189746003
-0.0001171180285343716
-0.0001226294651712832
-0.0001198737468528274
-0.00010609515526054846
-0.00010058371862363688
-0.00010609515526054846
-0.00011436231021591582
-0.00010885087357900426
-9.78280003051811e-05
-9.507228198672531e-05
-0.00010058371862363688
-0.00010885087357900426
-0.00011160659189746003
-0.00010333943694209268
-9.507228198672531e-05
-0.00010058371862363688
-0.00011160659189746003
-0.00011160659189746003
-0.00010333943694209268
-9.507228198672531e-05
-8.956084534981374e-05
-8.129369039444639e-05
-7.57822537575348e-05
-6.475938048371164e-05
-4.8225070572976926e-05
-4.8225070572976926e-05
-5.3736507209888505e-05
-3.995791561760957e-05
1.3778591592272275e-06
4.271363393606403e-05
5.373650720988717e-05
3.9957915617608246e-05
1.5156450751506162e-05
-6.889295796140132e-06
-9.64501411459592e-06
-6.889295796140132e-06
-2.066788738841907e-05
-4.2713633936065354e-05
-6.200366216525588e-05
-7.302653543907902e-05
-8.680512703135793e-05
-0.00010885087357900426
-0.00012538518348973897
-0.00012814090180819475
-0.00013089662012665053
-0.0001226294651712832
-0.00012814090180819475
-0.0001364080567635621
-0.0001391637750820179
-0.00013089662012665053
-0.0001226294651712832
-0.00012538518348973897
-0.0001336523384451063
-0.0001364080567635621
-0.00013089662012665053
-6.475938048371164e-05
5.373650720988717e-05
0.0002135681696803228
0.0003844227054245816
0.0005525215228503846
0.0007509332417792012
0.000998947890440222
0.0011560238345922017
0.000896986312657358
4.546935225451981e-05
-0.001310344060425727
-0.0022472882887006945
-0.0023382269932097363
-0.0020984794995040825
-0.0018669991607537957
-0.0016272516670481428
-0.0013406569619287408
-0.0009603678339818424
-0.0005828344243533996
-0.0003375754940108345
-0.00018876670481422206
-0.00011436231021591582
-8.404940871290214e-05
-5.9247943846800084e-05
-2.066788738841907e-05
1.5156450751506162e-05
3.720219729915245e-05
4.82250705729756e-05
5.373650720988717e-05
6.751509880216611e-05
8.956084534981241e-05
9.782800030517979e-05
9.507228198672396e-05
9.782800030517979e-05
0.00011436231021591448
0.00013365233844510492
0.00014467521171892812
0.00014467521171892812
0.00014743093003738393
0.00016120952162966288
0.00018601098649576498
0.00020530101472495543
0.00021632388799877858
0.0002218353246356902
0.00023561391622796914
0.0002576596627756154
0.0002741939726863501
0.0002879725642786291
0.0002989954375524522
0.000315529747463187
0.000340331212329289
0.00036788839551384685
0.0003844227054245816
0.000392689860379949
0.00041197988860913943
0.0004395370717936973
0.0004670942549782553
0.0004808728465705341
0.0004891400015259016
0.0005001628747997245
0.0005222086213473709
0.0005414986495765614
0.0005497658045319286
0.000547010086213473
0.0005442543678950173
0.000547010086213473
0.0005525215228503846
0.0005497658045319286
0.0005139414663920035
0.0005001628747997245
0.0004891400015259016
0.0004670942549782553
0.00042575848020141833
0.00037615555046921414
0.0003293083390554659
0.0002879725642786291
0.00024112535286488067
0.00018049954985885336
0.00011987374685282605
7.578225375753347e-05
4.546935225451981e-05
1.5156450751506162e-05
-1.5156450751507488e-05
-4.8225070572976926e-05
-7.302653543907902e-05
-8.404940871290214e-05
-8.956084534981374e-05
-0.00010333943694209268
-0.0001198737468528274
-0.00013089662012665053
-0.00013089662012665053
-0.00012538518348973897
-0.00012814090180819475
-0.0001391637750820179
-0.00014743093003738526
-0.00014743093003738526
-0.00013089662012665053
-0.00012814090180819475
-0.00013089662012665053
-0.0001391637750820179
-0.0001391637750820179
-0.0001336523384451063
-0.00013089662012665053
-0.0001336523384451063
-0.0001364080567635621
-0.0001336523384451063
-0.0001226294651712832
-0.00011160659189746003
-0.0001171180285343716
-0.0001226294651712832
-0.0001226294651712832
-0.00011436231021591582
-9.78280003051811e-05
-9.507228198672531e-05
-0.00010333943694209268
-0.00010333943694209268
-9.78280003051811e-05
-8.680512703135793e-05
-8.404940871290214e-05
-9.231656366826955e-05
-9.78280003051811e-05
-9.231656366826955e-05
-8.129369039444639e-05
-7.85379720759906e-05
-8.680512703135793e-05
-9.231656366826955e-05
-8.956084534981374e-05
-8.129369039444639e-05
-7.57822537575348e-05
-8.129369039444639e-05
-9.231656366826955e-05
-8.956084534981374e-05
-8.129369039444639e-05
-7.57822537575348e-05
-8.680512703135793e-05
-9.231656366826955e-05
-5.9247943846800084e-05
-4.2713633936065354e-05
-3.995791561760957e-05
-4.2713633936065354e-05
-4.2713633936065354e-05
-3.720219729915378e-05
-9.64501411459592e-06
2.3423605706873515e-05
4.82250705729756e-05
5.649222552834297e-05
5.649222552834297e-05
4.546935225451981e-05
2.066788738841773e-05
1.3778591592272275e-06
-6.889295796140132e-06
-9.64501411459592e-06
-9.64501411459592e-06
-2.8935042343786426e-05
-5.3736507209888505e-05
-8.404940871290214e-05
-0.00010333943694209268
-0.00010058371862363688
-9.78280003051811e-05
-0.00010885087357900426
-0.0001198737468528274
-0.0001198737468528274
-0.00011160659189746003
-0.00010609515526054846
-0.00011436231021591582
-0.00012538518348973897
-0.00012538518348973897
-0.0001171180285343716
-0.00011160659189746003
-0.00011436231021591582
-0.0001198737468528274
-7.302653543907902e-05
5.9247943846798756e-05
0.00023561391622796914
0.0004064684519722279
0.000560788677805752
0.000767467551689936
0.0010595736934462493
0.001271764003967345
0.0010402836652170589
0.00017498811322194178
-0.0012304282291905097
-0.0021811510490577562
-0.0022555554436560626
-0.002015807949950409
-0.0018091290760662245
-0.0016052059205004963
-0.0013351455252918294
-0.0009548563973449309
-0.0005718115510795765
-0.0003403312123292903
-0.0002108124513618684
-0.0001336523384451063
-8.404940871290214e-05
-4.2713633936065354e-05
-1.7912169069963278e-05
-1.377859159228559e-06
2.066788738841773e-05
4.546935225451981e-05
6.475938048371032e-05
7.30265354390777e-05
7.578225375753347e-05
7.853797207598924e-05
9.507228198672396e-05
0.00011711802853437029
0.00011987374685282605
0.0001253851834897376
0.00013916377508201656
0.0001556980849927513
0.0001694766765850302
0.000172232394903486
0.00017774383154039756
0.00020254529640649968
0.00022459104295414594
0.0002383696345464249
0.00024112535286488067
0.00024663678950179223
0.000263171099412527
0.0002879725642786291
0.00031001831082627527
0.00032379690241855427
0.0003348197756923775
0.0003568655222400236
0.0003844227054245816
0.00041197988860913943
0.00042851419851987416
0.0004450485084306089
0.0004670942549782553
0.0004974071564812689
0.0005194529030289152
0.0005332314946211942
0.0005359872129396498
0.0005414986495765614
0.0005525215228503846
0.0005690558327611192
0.0005690558327611192
0.0005552772411688404
0.0005414986495765614
0.0005414986495765614
0.0005359872129396498
0.0005166971847104594
0.0004891400015259016
0.0004533156633859763
0.00042024704356450677
0.00038717842374303736
0.0003430869306477448
0.0002824611276417174
0.0002135681696803228
0.00016120952162966288
0.00011711802853437029
7.578225375753347e-05
2.8935042343785094e-05
-2.066788738841907e-05
-5.3736507209888505e-05
-7.027081712062322e-05
-8.956084534981374e-05
-0.00011160659189746003
-0.0001336523384451063
-0.00014467521171892948
-0.00014467521171892948
-0.00014467521171892948
-0.00015294236667429682
-0.00016396523994811996
-0.00017223239490348733
-0.00016672095826657574
-0.0001584538033112084
-0.0001612095216296642
-0.00017223239490348733
-0.00017223239490348733
-0.00016947667658503157
-0.0001612095216296642
-0.0001612095216296642
-0.0001777438315403989
-0.00017223239490348733
-0.0001584538033112084
-0.00014467521171892948
-0.00014467521171892948
-0.00015294236667429682
-0.000150186648355841
-0.0001364080567635621
-0.0001336523384451063
-0.0001364080567635621
-0.0001391637750820179
-0.0001391637750820179
-0.00013089662012665053
-0.0001226294651712832
-0.0001198737468528274
-0.00012814090180819475
-0.00013089662012665053
-0.0001226294651712832
-0.00010885087357900426
-0.00010333943694209268
-0.00010885087357900426
-0.00011436231021591582
-0.00011160659189746003
-0.00010609515526054846
-0.00010058371862363688
-0.00010885087357900426
-0.00011436231021591582
-0.00011160659189746003
-0.00010609515526054846
-9.78280003051811e-05
-9.231656366826955e-05
-9.507228198672531e-05
-8.680512703135793e-05
-6.751509880216745e-05
-5.9247943846800084e-05
-7.027081712062322e-05
-6.751509880216745e-05
-3.995791561760957e-05
6.8892957961388014e-06
3.444647898069667e-05
2.8935042343785094e-05
6.8892957961388014e-06
-1.7912169069963278e-05
-2.6179324025330647e-05
-2.066788738841907e-05
-3.169076066224221e-05
-5.098078889143272e-05
-7.027081712062322e-05
-8.680512703135793e-05
-9.231656366826955e-05
-0.00010885087357900426
-0.0001336523384451063
-0.00014467521171892948
-0.00014467521171892948
-0.0001391637750820179
-0.0001364080567635621
-0.00014467521171892948
-0.000150186648355841
-0.00014743093003738526
-0.0001391637750820179
-0.0001364080567635621
-0.00014467521171892948
-0.00015569808499275262
-0.00015569808499275262
-0.0001391637750820179
-9.78280003051811e-05
-1.377859159228559e-06
0.00015294236667429551
0.0003348197756923775
0.0006985745937285414
0.0009300549324788276
0.0011505123979552907
0.001051306538490882
0.0003596212405584795
-0.000963123552300298
-0.0021811510490577562
-0.002498058655680171
-0.002299646936751355
-0.002035097978179599
-0.0018063733577477691
-0.001572137300679027
-0.0012855425955596252
-0.0009080091859311822
-0.0005525215228503861
-0.0003320640573739229
-0.00019152242313267784
-0.00012538518348973897
-9.231656366826955e-05
-5.3736507209888505e-05
-1.240073243305171e-05
1.7912169069961946e-05
2.8935042343785094e-05
3.720219729915245e-05
5.649222552834297e-05
8.129369039444505e-05
0.00010058371862363556
0.00010609515526054714
0.00010609515526054714
0.00011711802853437029
0.00013916377508201656
0.00015294236667429551
0.00015845380331120705
0.00015845380331120705
0.0001694766765850302
0.00019152242313267648
0.0002135681696803228
0.00022734676127260172
0.00023285819790951333
0.00024388107118333642
0.00026592681773098274
0.00029072828259708476
0.0003072625925078196
0.0003182854657816428
0.0003348197756923775
0.0003623769588769353
0.000392689860379949
0.00041749132524605104
0.0004367813534752416
0.0004588271000228878
0.0004891400015259016
0.0005249643396658268
0.0005580329594872961
0.0005800787060349425
0.0005911015793087656
0.0006103916075379561
0.000637948790722514
0.0006572388189517045
0.0006572388189517045
0.0006544831006332488
0.0006544831006332488
0.0006627502555886161
0.0006599945372701603
0.0006434602273594254
0.0006186587624933234
0.0005966130159456772
0.0005800787060349425
0.0005552772411688404
0.0004533156633859763
0.00038993414206149314
0.00033206405737392166
0.00027143825436789435
0.00020254529640649968
0.00013089662012664922
7.02708171206219e-05
2.6179324025329308e-05
-6.889295796140132e-06
-3.720219729915378e-05
-7.302653543907902e-05
-0.00010333943694209268
-0.0001226294651712832
-0.00013089662012665053
-0.0001391637750820179
-0.00015569808499275262
-0.00017498811322194308
-0.00018049954985885472
-0.00017498811322194308
-0.00017223239490348733
-0.00018049954985885472
-0.00019427814145113364
-0.00019703385976958942
-0.00019152242313267784
-0.00018325526817731047
-0.00018601098649576628
-0.00019703385976958942
-0.0001997895780880452
-0.00019152242313267784
-0.00018049954985885472
-0.00018325526817731047
-0.00018876670481422206
-0.00019152242313267784
-0.00018325526817731047
-0.00016947667658503157
-0.0001584538033112084
-0.00016396523994811996
-0.00016396523994811996
-0.00015569808499275262
-0.0001364080567635621
-0.00012814090180819475
-0.0001336523384451063
-0.0001364080567635621
-0.00013089662012665053
-0.0001198737468528274
-0.00011160659189746003
-0.00011160659189746003
-0.0001198737468528274
-0.0001171180285343716
-0.00010885087357900426
-0.00010333943694209268
-0.00010333943694209268
-0.00011436231021591582
-0.0001198737468528274
-0.00010609515526054846
-9.231656366826955e-05
-8.680512703135793e-05
-8.680512703135793e-05
-8.404940871290214e-05
-7.027081712062322e-05
-5.9247943846800084e-05
-6.200366216525588e-05
-6.751509880216745e-05
-5.3736507209888505e-05
-1.7912169069963278e-05
2.066788738841773e-05
3.444647898069667e-05
2.066788738841773e-05
-1.7912169069963278e-05
-2.066788738841907e-05
-2.342360570687485e-05
-3.995791561760957e-05
-5.6492225528344285e-05
-7.57822537575348e-05
-8.680512703135793e-05
-9.78280003051811e-05
-0.0001198737468528274
-0.00014191949340047367
-0.00014743093003738526
-0.00014743093003738526
-0.0001391637750820179
-0.00014467521171892948
-0.00015294236667429682
-0.00015569808499275262
-0.000150186648355841
-0.00014467521171892948
-0.00014467521171892948
-0.00015294236667429682
-0.0001584538033112084
-0.00015294236667429682
-0.0001336523384451063
-7.027081712062322e-05
6.475938048371032e-05
0.00024112535286488067
0.00041473560692759526
0.000585590142671854
0.0007647118333714802
0.000960367833981841
0.0010182379186694126
0.0005911015793087656
-0.00040371273365377345
-0.0017733047379262996
-0.002591753078507668
-0.0026000202334630356
-0.0023299598382543686
-0.00205438800640879
-0.0017953504844739458
-0.0015225343709468226
-0.0011725581445029378
-0.0007619561150530257
-0.00045055994506752175
-0.0002549039444571609
-0.0001391637750820179
-9.78280003051811e-05
-6.475938048371164e-05
-2.342360570687485e-05
1.5156450751506162e-05
3.444647898069667e-05
4.546935225451981e-05
6.200366216525454e-05
8.129369039444505e-05
0.00010058371862363556
0.00011160659189745871
0.00011160659189745871
0.00011711802853437029
0.00013365233844510492
0.0001556980849927513
0.0001694766765850302
0.000172232394903486
0.00017774383154039756
0.00019152242313267648
0.0002135681696803228
0.00023010247959105753
0.0002383696345464249
0.00024663678950179223
0.00026041538109407124
0.000315529747463187
0.00033206405737392166
0.00034584264896620056
0.0003623769588769353
0.000392689860379949
0.00043126991683832994
0.0004478042267490647
0.0004643385366597993
0.0004918957198443572
0.0005277200579842825
0.000560788677805752
0.0005883458609903097
0.0006048801709010444
0.0006269259174486908
0.0006489716639963371
0.0006710174105439835
0.0006847960021362622
0.0006820402838178067
0.000679284565499351
0.000687551720454718
0.000687551720454718
0.000679284565499351
0.0006627502555886161
0.000637948790722514
0.0006186587624933234
0.0005966130159456772
0.0005663001144426635
0.0005111857480735478
0.0004450485084306089
0.0003816669871061258
0.00032104118410009855
0.0002576596627756154
0.00018876670481422076
0.00011987374685282605
6.751509880216611e-05
3.444647898069667e-05
4.133577477683014e-06
-2.8935042343786426e-05
-7.027081712062322e-05
-9.78280003051811e-05
-0.00010333943694209268
-0.00010609515526054846
-0.0001171180285343716
-0.0001336523384451063
-0.00014191949340047367
-0.00014467521171892948
-0.0001391637750820179
-0.0001391637750820179
-0.000150186648355841
-0.0001612095216296642
-0.0001612095216296642
-0.000150186648355841
-0.00014743093003738526
-0.00015294236667429682
-0.0001584538033112084
-0.0001584538033112084
-0.00015294236667429682
-0.00014467521171892948
-0.00014743093003738526
-0.00015569808499275262
-0.000150186648355841
-0.0001364080567635621
-0.00012814090180819475
-0.00013089662012665053
-0.0001391637750820179
-0.0001364080567635621
-0.00012538518348973897
-0.00011160659189746003
-0.00011436231021591582
-0.0001171180285343716
-0.00010609515526054846
-9.231656366826955e-05
-8.956084534981374e-05
-9.231656366826955e-05
-9.507228198672531e-05
-8.404940871290214e-05
-7.57822537575348e-05
-7.57822537575348e-05
-8.129369039444639e-05
-8.956084534981374e-05
-8.680512703135793e-05
-7.57822537575348e-05
-7.027081712062322e-05
-7.85379720759906e-05
-8.404940871290214e-05
-7.57822537575348e-05
-5.098078889143272e-05
-3.4446478980697995e-05
-3.4446478980697995e-05
-3.720219729915378e-05
-3.720219729915378e-05
-2.6179324025330647e-05
-4.133577477684346e-06
2.066788738841773e-05
4.546935225451981e-05
6.200366216525454e-05
6.200366216525454e-05
5.098078889143139e-05
2.6179324025329308e-05
1.3778591592272275e-06
-4.133577477684346e-06
-4.133577477684346e-06
-6.889295796140132e-06
-2.342360570687485e-05
-4.8225070572976926e-05
-7.027081712062322e-05
-8.680512703135793e-05
-9.231656366826955e-05
-9.78280003051811e-05
-0.00010885087357900426
-0.0001198737468528274
-0.0001198737468528274
-0.00010609515526054846
-0.00010333943694209268
-0.00011160659189746003
-0.0001226294651712832
-0.0001198737468528274
-0.00011436231021591582
-0.00010885087357900426
-0.00011436231021591582
-0.0001198737468528274
-8.404940871290214e-05
3.720219729915245e-05
0.0002135681696803228
0.00038993414206149314
0.0005414986495765614
0.0007040860303654528
0.0009245434958419158
0.001089886594949263
0.0008997420309758136
0.00015294236667429551
-0.0011064209048599993
-0.0022252425421530487
-0.0024897915007248044
-0.0022803569085221636
-0.0020406094148165107
-0.0018146405127031364
-0.001164290989547571
-0.0007426660868238351
-0.0004285141985198755
-0.00024388107118333775
-0.0001336523384451063
-7.027081712062322e-05
-3.169076066224221e-05
-4.133577477684346e-06
1.5156450751506162e-05
3.720219729915245e-05
6.475938048371032e-05
8.956084534981241e-05
9.507228198672396e-05
9.23165636682682e-05
9.782800030517979e-05
0.00011711802853437029
0.00013365233844510492
0.00014191949340047234
0.00013916377508201656
0.00014743093003738393
0.00016396523994811866
0.0001832552681773092
0.00019427814145113231
0.00019978957808804387
0.00020805673304341124
0.00022459104295414594
0.00024663678950179223
0.000263171099412527
0.00027143825436789435
0.00027970540932326175
0.000301751155870908
0.0003293083390554659
0.00035135408560311223
0.0003623769588769353
0.00037891126878767
0.0003982012970168605
0.00043126991683832994
0.0004588271000228878
0.0004726056916151668
0.0004918957198443572
0.0005111857480735478
0.0005442543678950173
0.0005718115510795751
0.000585590142671854
0.0005938572976272215
0.0006021244525825888
0.0006131473258564118
0.0006241701991302349
0.0006241701991302349
0.0006131473258564118
0.000599368734264133
0.0005938572976272215
0.0005911015793087656
0.0005718115510795751
0.0005414986495765614
0.000508430029755092
0.00047536140993362247
0.0004367813534752416
0.00038717842374303736
0.0003182854657816428
0.0002493925078202481
0.0001970338597695881
0.00015294236667429551
0.00010885087357900291
6.200366216525454e-05
1.5156450751506162e-05
-1.7912169069963278e-05
-3.720219729915378e-05
-7.302653543907902e-05
-9.78280003051811e-05
-0.00011160659189746003
-0.00010885087357900426
-0.00010885087357900426
-0.0001171180285343716
-0.0001336523384451063
-0.00014191949340047367
-0.0001336523384451063
-0.00012814090180819475
-0.00013089662012665053
-0.0001391637750820179
-0.00014191949340047367
-0.0001364080567635621
-0.00012814090180819475
-0.00012814090180819475
-0.0001364080567635621
-0.00014191949340047367
-0.0001391637750820179
-0.00012814090180819475
-0.0001226294651712832
-0.00012814090180819475
-0.0001336523384451063
-0.00012538518348973897
-0.00011160659189746003
-0.00010609515526054846
-0.00011160659189746003
-0.0001198737468528274
-0.00011436231021591582
-0.00010333943694209268
-9.507228198672531e-05
-9.78280003051811e-05
-0.00010333943694209268
-0.00010333943694209268
-8.956084534981374e-05
-7.85379720759906e-05
-8.129369039444639e-05
-8.956084534981374e-05
-8.956084534981374e-05
-8.129369039444639e-05
-7.302653543907902e-05
-7.027081712062322e-05
-7.85379720759906e-05
-8.129369039444639e-05
-7.57822537575348e-05
-6.475938048371164e-05
-6.475938048371164e-05
-7.57822537575348e-05
-8.680512703135793e-05
-7.85379720759906e-05
-5.6492225528344285e-05
-3.4446478980697995e-05
-3.169076066224221e-05
-3.4446478980697995e-05
-2.8935042343786426e-05
-2.066788738841907e-05
-1.240073243305171e-05
6.8892957961388014e-06
3.444647898069667e-05
6.475938048371032e-05
8.129369039444505e-05
7.853797207598924e-05
5.098078889143139e-05
2.3423605706873515e-05
1.5156450751506162e-05
1.5156450751506162e-05
1.2400732433050376e-05
-4.133577477684346e-06
-5.098078889143272e-05
-6.200366216525588e-05
-7.302653543907902e-05
-8.404940871290214e-05
-0.00010058371862363688
-0.00011160659189746003
-0.00010885087357900426
-0.00010058371862363688
-9.78280003051811e-05
-0.00010609515526054846
-0.00011160659189746003
-0.00010609515526054846
-0.00010058371862363688
-9.78280003051811e-05
-0.00010609515526054846
-0.0001198737468528274
-0.00010885087357900426
-4.8225070572976926e-05
8.129369039444505e-05
0.0002493925078202481
0.0004092241702906837
0.0005552772411688404
0.0007426660868238338
0.0009658792706187528
0.0010926423132677188
0.0008280933546959632
2.066788738841773e-05
-0.0012772754406042577
-0.0022555554436560626
-0.002398852796215763
-0.002186662485694668
-0.0019551821469443813
-0.001690633188372626
-0.0013682141451132987
-0.000963123552300298
-0.0005855901426718552
-0.0003320640573739229
-0.00016947667658503157
-8.956084534981374e-05
-4.8225070572976926e-05
-2.342360570687485e-05
-1.377859159228559e-06
3.169076066224089e-05
6.200366216525454e-05
8.129369039444505e-05
8.956084534981241e-05
8.956084534981241e-05
9.782800030517979e-05
0.00011436231021591448
0.00012262946517128183
0.00013089662012664922
0.00013365233844510492
0.00013916377508201656
0.0001556980849927513
0.00017498811322194178
0.00018049954985885336
0.0001832552681773092
0.00019152242313267648
0.000210812451361867
0.00023010247959105753
0.00024663678950179223
0.0002549039444571596
0.00026041538109407124
0.00027970540932326175
0.0003072625925078196
0.00032655262073701005
0.0003348197756923775
0.0003485983672846564
0.0004064684519722279
0.00042575848020141833
0.0004395370717936973
0.0004588271000228878
0.0004808728465705341
0.0005056743114366363
0.0005359872129396498
0.000547010086213473
0.0005525215228503846
0.0005663001144426635
0.0005883458609903097
0.0006021244525825888
0.0005966130159456772
0.0005883458609903097
0.0005883458609903097
0.0005938572976272215
0.0005911015793087656
0.0005718115510795751
0.0005442543678950173
0.0005194529030289152
0.0004946514381628131
0.000469849973296711
0.00042575848020141833
0.000365132677195391
0.00030450687418936376
0.00025214822613870384
0.00020254529640649968
0.00014743093003738393
9.23165636682682e-05
4.82250705729756e-05
1.7912169069961946e-05
-6.889295796140132e-06
-2.8935042343786426e-05
-5.9247943846800084e-05
-8.129369039444639e-05
-8.956084534981374e-05
-9.231656366826955e-05
-9.507228198672531e-05
-0.00011160659189746003
-0.00012814090180819475
-0.00013089662012665053
-0.0001198737468528274
-0.00011436231021591582
-0.0001198737468528274
-0.00013089662012665053
-0.0001364080567635621
-0.00012814090180819475
-0.0001198737468528274
-0.0001226294651712832
-0.0001336523384451063
-0.0001336523384451063
-0.00012538518348973897
-0.0001171180285343716
-0.0001171180285343716
-0.00012538518348973897
-0.00013089662012665053
-0.0001226294651712832
-0.00010885087357900426
-0.00010609515526054846
-0.00011160659189746003
-0.0001198737468528274
-0.00011160659189746003
-9.78280003051811e-05
-9.507228198672531e-05
-0.00010058371862363688
-0.00010609515526054846
-0.00010333943694209268
-9.231656366826955e-05
-8.956084534981374e-05
-9.78280003051811e-05
-9.507228198672531e-05
-8.129369039444639e-05
-7.302653543907902e-05
-7.57822537575348e-05
-8.680512703135793e-05
-8.956084534981374e-05
-7.85379720759906e-05
-7.027081712062322e-05
-7.302653543907902e-05
-8.404940871290214e-05
-8.680512703135793e-05
-7.85379720759906e-05
-7.027081712062322e-05
-7.027081712062322e-05
-7.85379720759906e-05
-8.404940871290214e-05
-8.404940871290214e-05
-7.57822537575348e-05
-7.57822537575348e-05
-8.129369039444639e-05
-7.027081712062322e-05
-5.3736507209888505e-05
-3.720219729915378e-05
-2.8935042343786426e-05
-3.4446478980697995e-05
-3.720219729915378e-05
-2.342360570687485e-05
1.2400732433050376e-05
5.649222552834297e-05
7.30265354390777e-05
6.475938048371032e-05
5.098078889143139e-05
3.720219729915245e-05
2.3423605706873515e-05
1.5156450751506162e-05
1.3778591592272275e-06
-1.240073243305171e-05
-2.066788738841907e-05
-2.8935042343786426e-05
-5.098078889143272e-05
-8.129369039444639e-05
-0.00010058371862363688
-0.00010058371862363688
-9.78280003051811e-05
-0.00010058371862363688
-0.00010885087357900426
-0.00011436231021591582
-0.00010885087357900426
-0.00010058371862363688
-0.00010058371862363688
-0.00011160659189746003
-0.0001198737468528274
-0.00011436231021591582
-0.00010609515526054846
-0.00010609515526054846
-9.78280003051811e-05
-3.720219729915378e-05
9.782800030517979e-05
0.0002741939726863501
0.0004395370717936973
0.0005883458609903097
0.0007812461432822147
0.0010209936369878683
0.0011091766231784534
0.0007261317769130989
-0.00025765966277561676
-0.0016079616388189524
-0.0023051583733882668
-0.00205438800640879
-0.0018311748226138708
-0.0015831601739528503
-0.0012690082856488905
-0.0008528948195620666
-0.0004974071564812702
-0.0002824611276417188
-0.00016396523994811996
-0.00010333943694209268
-6.200366216525588e-05
-2.066788738841907e-05
1.2400732433050376e-05
2.8935042343785094e-05
4.271363393606403e-05
5.9247943846798756e-05
8.129369039444505e-05
9.507228198672396e-05
9.782800030517979e-05
9.507228198672396e-05
0.00010609515526054714
0.00012814090180819342
0.00014467521171892812
0.00014467521171892812
0.00014467521171892812
0.0001556980849927513
0.00017498811322194178
0.00019427814145113231
0.00020254529640649968
0.00020805673304341124
0.00021632388799877858
0.00023561391622796914
0.0002576596627756154
0.00027143825436789435
0.00027970540932326175
0.00029072828259708476
0.00031001831082627527
0.0003375754940108332
0.00035410980392156795
0.000365132677195391
0.00037615555046921414
0.00040371273365377215
0.0004340256351567857
0.0004588271000228878
0.0004670942549782553
0.0004808728465705341
0.0005056743114366363
0.0005359872129396498
0.0005497658045319286
0.0005552772411688404
0.0005580329594872961
0.0005663001144426635
0.0005773229877164866
0.0005883458609903097
0.0005773229877164866
0.000560788677805752
0.0005497658045319286
0.000547010086213473
0.0005359872129396498
0.0005111857480735478
0.000469849973296711
0.0004340256351567857
0.00040371273365377215
0.0003623769588769353
0.000301751155870908
0.00023561391622796914
0.00017498811322194178
0.00013089662012664922
5.373650720988717e-05
9.64501411459459e-06
-2.8935042343786426e-05
-5.098078889143272e-05
-6.475938048371164e-05
-8.129369039444639e-05
-0.00010058371862363688
-0.0001171180285343716
-0.0001226294651712832
-0.0001226294651712832
-0.0001226294651712832
-0.0001336523384451063
-0.00014467521171892948
-0.000150186648355841
-0.00014467521171892948
-0.0001364080567635621
-0.00014191949340047367
-0.00014743093003738526
-0.000150186648355841
-0.00014191949340047367
-0.0001391637750820179
-0.00014191949340047367
-0.00015294236667429682
-0.00015569808499275262
-0.00014467521171892948
-0.00013089662012665053
-0.00012814090180819475
-0.00013089662012665053
-0.0001364080567635621
-0.00013089662012665053
-0.0001198737468528274
-0.00011436231021591582
-0.0001171180285343716
-0.00012538518348973897
-0.0001171180285343716
-0.00010609515526054846
-0.00010058371862363688
-0.00010058371862363688
-0.00010885087357900426
-0.00010609515526054846
-9.231656366826955e-05
-8.956084534981374e-05
-9.507228198672531e-05
-0.00010333943694209268
-0.00010058371862363688
-9.231656366826955e-05
-8.404940871290214e-05
-8.956084534981374e-05
-9.507228198672531e-05
-9.78280003051811e-05
-9.231656366826955e-05
-8.404940871290214e-05
-8.956084534981374e-05
-0.00010058371862363688
-0.00010333943694209268
-9.78280003051811e-05
-8.680512703135793e-05
-8.956084534981374e-05
-9.78280003051811e-05
-0.00010333943694209268
-0.00010058371862363688
-9.507228198672531e-05
-9.507228198672531e-05
-0.00010333943694209268
-0.00010609515526054846
-0.00010333943694209268
-8.956084534981374e-05
-7.57822537575348e-05
-6.751509880216745e-05
-5.6492225528344285e-05
-4.2713633936065354e-05
-3.4446478980697995e-05
-3.169076066224221e-05
-1.240073243305171e-05
2.3423605706873515e-05
5.098078889143139e-05
5.649222552834297e-05
4.271363393606403e-05
1.2400732433050376e-05
-6.889295796140132e-06
-4.133577477684346e-06
-1.377859159228559e-06
-1.240073243305171e-05
-3.720219729915378e-05
-5.9247943846800084e-05
-7.027081712062322e-05
-8.404940871290214e-05
-0.00010058371862363688
-0.00011160659189746003
-0.0001226294651712832
-0.0001198737468528274
-0.00011160659189746003
-0.00010885087357900426
-0.0001171180285343716
-0.00012538518348973897
-0.0001226294651712832
-0.00011160659189746003
-0.00010609515526054846
-0.00011436231021591582
-0.00012814090180819475
-0.0001336523384451063
-0.00010885087357900426
-3.4446478980697995e-05
8.68051270313566e-05
0.00023561391622796914
0.000392689860379949
0.0005552772411688404
0.0007757347066453035
0.0010540622568093376
0.0012001153276874944
0.0008859634393835348
-4.5469352254521147e-05
-0.0014205727931639587
-0.002236265415426872
-0.0022472882887006945
-0.0020075407949950415
-0.001787083329518578
-0.001550091554131381
-0.0012690082856488905
-0.0008942305943389032
-0.0005442543678950186
-0.00032379690241855563
-0.00018049954985885472
-0.00010609515526054846
-7.85379720759906e-05
-5.3736507209888505e-05
-2.066788738841907e-05
1.2400732433050376e-05
3.720219729915245e-05
5.373650720988717e-05
5.649222552834297e-05
6.751509880216611e-05
8.956084534981241e-05
0.00010333943694209132
0.00010609515526054714
0.00010609515526054714
0.00013365233844510492
0.00014743093003738393
0.0001556980849927513
0.0001556980849927513
0.00016120952162966288
0.00018049954985885336
0.00020530101472495543
0.00021632388799877858
0.0002190796063172344
0.00023010247959105753
0.0002493925078202481
0.0002741939726863501
0.0002934840009155406
0.000301751155870908
0.00031001831082627527
0.0003293083390554659
0.0003596212405584795
0.0003816669871061258
0.000392689860379949
0.00040371273365377215
0.00042575848020141833
0.0004533156633859763
0.0004781171282520784
0.0004974071564812689
0.0005056743114366363
0.0005194529030289152
0.0005414986495765614
0.000560788677805752
0.0005663001144426635
0.0005552772411688404
0.0005525215228503846
0.0005580329594872961
0.000560788677805752
0.0005525215228503846
0.0005304757763027383
0.0005111857480735478
0.0004946514381628131
0.0004808728465705341
0.0004505599450675205
0.0004009570153353164
0.00035135408560311223
0.0002989954375524522
0.0002576596627756154
0.00020530101472495543
0.00014467521171892812
8.956084534981241e-05
5.098078889143139e-05
2.6179324025329308e-05
-1.377859159228559e-06
-3.720219729915378e-05
-6.751509880216745e-05
-8.129369039444639e-05
-8.680512703135793e-05
-9.231656366826955e-05
-0.00010609515526054846
-0.0001198737468528274
-0.00012814090180819475
-0.0001198737468528274
-0.00011436231021591582
-0.00012538518348973897
-0.0001391637750820179
-0.00014191949340047367
-0.00013089662012665053
-0.0001226294651712832
-0.00012538518348973897
-0.0001336523384451063
-0.0001391637750820179
-0.0001336523384451063
-0.00012538518348973897
-0.0001336523384451063
-0.0001364080567635621
-0.00012814090180819475
-0.00011436231021591582
-0.00010885087357900426
-0.00011436231021591582
-0.0001171180285343716
-0.00010885087357900426
-9.507228198672531e-05
-8.956084534981374e-05
-8.956084534981374e-05
-9.78280003051811e-05
-9.78280003051811e-05
-8.404940871290214e-05
-7.302653543907902e-05
-7.57822537575348e-05
-8.129369039444639e-05
-8.129369039444639e-05
-7.027081712062322e-05
-5.9247943846800084e-05
-6.475938048371164e-05
-7.57822537575348e-05
-7.57822537575348e-05
-7.027081712062322e-05
-6.200366216525588e-05
-6.475938048371164e-05
-7.57822537575348e-05
-8.129369039444639e-05
-7.57822537575348e-05
-6.475938048371164e-05
-6.751509880216745e-05
-8.129369039444639e-05
-8.680512703135793e-05
-8.129369039444639e-05
-7.302653543907902e-05
-7.302653543907902e-05
-7.85379720759906e-05
-8.680512703135793e-05
-8.404940871290214e-05
-7.302653543907902e-05
-5.6492225528344285e-05
-4.8225070572976926e-05
-4.8225070572976926e-05
-4.5469352254521147e-05
-3.4446478980697995e-05
-2.6179324025330647e-05
-1.7912169069963278e-05
-4.133577477684346e-06
3.444647898069667e-05
6.751509880216611e-05
7.30265354390777e-05
5.9247943846798756e-05
2.8935042343785094e-05
6.8892957961388014e-06
6.8892957961388014e-06
1.2400732433050376e-05
4.133577477683014e-06
-2.066788738841907e-05
-4.5469352254521147e-05
-5.9247943846800084e-05
-6.751509880216745e-05
-8.129369039444639e-05
-9.507228198672531e-05
-0.00010609515526054846
-0.00010885087357900426
-9.78280003051811e-05
-9.231656366826955e-05
-0.00010333943694209268
-0.00010609515526054846
-9.78280003051811e-05
-9.507228198672531e-05
-0.00010058371862363688
-0.00011160659189746003
-0.00011436231021591582
-8.956084534981374e-05
-1.7912169069963278e-05
0.00010609515526054714
0.00026041538109407124
0.00042024704356450677
0.0005938572976272215
0.0008363605096513305
0.001136733806363011
0.0012993211871519031
0.0009658792706187528
-1.240073243305171e-05
-0.0014260842298008704
-0.002203196795605402
-0.0021728838941023885
-0.0019358921187151907
-0.0017347246814679183
-0.0015060000610360883
-0.0012249167925535982
-0.0008528948195620666
-0.0005084300297550932
-0.0002989954375524536
-0.00016396523994811996
-9.231656366826955e-05
-5.9247943846800084e-05
-3.169076066224221e-05
-6.889295796140132e-06
2.8935042343785094e-05
5.649222552834297e-05
7.02708171206219e-05
7.30265354390777e-05
8.129369039444505e-05
9.782800030517979e-05
0.00011711802853437029
0.00012262946517128183
0.00012262946517128183
0.00012814090180819342
0.00014743093003738393
0.00016396523994811866
0.0001694766765850302
0.000172232394903486
0.00018049954985885336
0.00019978957808804387
0.0002218353246356902
0.00023561391622796914
0.0002383696345464249
0.0002493925078202481
0.00026592681773098274
0.00029072828259708476
0.00030450687418936376
0.0003127740291447311
0.00032379690241855427
0.0003430869306477448
0.0003733998321507585
0.0003954455786984048
0.0004092241702906837
0.00042300276188296266
0.0004478042267490647
0.0004726056916151668
0.0005029185931181804
0.0005194529030289152
0.0005304757763027383
0.000547010086213473
0.0005911015793087656
0.0005966130159456772
0.0005883458609903097
0.000585590142671854
0.0005911015793087656
0.0005966130159456772
0.0005883458609903097
0.0005663001144426635
0.0005442543678950173
0.0005304757763027383
0.0005111857480735478
0.00047536140993362247
0.00042300276188296266
0.000365132677195391
0.0003127740291447311
0.000263171099412527
0.00020805673304341124
0.00015018664835583973
9.507228198672396e-05
5.373650720988717e-05
2.6179324025329308e-05
-1.377859159228559e-06
-3.4446478980697995e-05
-6.751509880216745e-05
-8.404940871290214e-05
-8.956084534981374e-05
-9.507228198672531e-05
-0.00010609515526054846
-0.00012538518348973897
-0.0001336523384451063
-0.00013089662012665053
-0.0001226294651712832
-0.0001226294651712832
-0.0001391637750820179
-0.00014467521171892948
-0.0001391637750820179
-0.0001336523384451063
-0.0001364080567635621
-0.00014467521171892948
-0.00014743093003738526
-0.00014191949340047367
-0.0001364080567635621
-0.0001336523384451063
-0.0001391637750820179
-0.00014467521171892948
-0.00014191949340047367
-0.00013089662012665053
-0.00012538518348973897
-0.00013089662012665053
-0.00012814090180819475
-0.0001198737468528274
-0.00010885087357900426
-0.00010333943694209268
-0.00010333943694209268
-0.00010609515526054846
-0.00010333943694209268
-9.507228198672531e-05
-8.680512703135793e-05
-9.231656366826955e-05
-9.78280003051811e-05
-9.231656366826955e-05
-8.680512703135793e-05
-7.85379720759906e-05
-7.85379720759906e-05
-8.404940871290214e-05
-8.956084534981374e-05
-8.680512703135793e-05
-7.85379720759906e-05
-8.129369039444639e-05
-8.956084534981374e-05
-8.680512703135793e-05
-8.404940871290214e-05
-8.404940871290214e-05
-9.507228198672531e-05
-0.00010333943694209268
-9.78280003051811e-05
-8.956084534981374e-05
-8.680512703135793e-05
-9.507228198672531e-05
-0.00010609515526054846
-0.00010333943694209268
-9.231656366826955e-05
-8.680512703135793e-05
-8.680512703135793e-05
-8.404940871290214e-05
-7.302653543907902e-05
-5.6492225528344285e-05
-4.5469352254521147e-05
-4.5469352254521147e-05
-5.098078889143272e-05
-3.995791561760957e-05
-6.889295796140132e-06
3.9957915617608246e-05
5.649222552834297e-05
4.271363393606403e-05
2.6179324025329308e-05
1.2400732433050376e-05
4.133577477683014e-06
-1.377859159228559e-06
-9.64501411459592e-06
-2.6179324025330647e-05
-3.720219729915378e-05
-4.5469352254521147e-05
-6.200366216525588e-05
-8.956084534981374e-05
-0.00010885087357900426
-0.00010885087357900426
-0.00010885087357900426
-0.00011160659189746003
-0.0001198737468528274
-0.00012538518348973897
-0.0001226294651712832
-0.00011160659189746003
-0.00010333943694209268
-0.00011160659189746003
-0.0001226294651712832
-0.0001198737468528274
-0.00011436231021591582
-0.00010885087357900426
-9.231656366826955e-05
-3.169076066224221e-05
0.00010058371862363556
0.00027970540932326175
0.0004588271000228878
0.0006296816357671465
0.0008391162279697863
0.0011201994964522765
0.0012607411306935217
0.0008776962844281674
-0.00018876670481422206
-0.0016382745403219659
-0.0023795627679865728
-0.002321692683299001
-0.00205438800640879
-0.0018284191042954152
-0.0016189845120927755
-0.0010237493553063252
-0.0006324373540856038
-0.00037615555046921565
-0.00022459104295414727
-0.0001336523384451063
-8.956084534981374e-05
-4.2713633936065354e-05
-6.889295796140132e-06
1.7912169069961946e-05
3.720219729915245e-05
5.649222552834297e-05
8.129369039444505e-05
0.00010333943694209132
0.00011160659189745871
0.00010885087357900291
0.00011987374685282605
0.00013640805676356078
0.00015294236667429551
0.00016396523994811866
0.00016672095826657444
0.0001694766765850302
0.00018876670481422076
0.00020805673304341124
0.0002218353246356902
0.00022459104295414594
0.00023010247959105753
0.0002493925078202481
0.00027970540932326175
0.0002989954375524522
0.00030450687418936376
0.0003127740291447311
0.0003348197756923775
0.000365132677195391
0.00038717842374303736
0.00040371273365377215
0.00041749132524605104
0.0004478042267490647
0.00048362856488898997
0.0005056743114366363
0.0005249643396658268
0.0005442543678950173
0.0005690558327611192
0.0005966130159456772
0.0006241701991302349
0.0006407045090409697
0.0006434602273594254
0.0006517273823147929
0.0006627502555886161
0.0006710174105439835
0.0006655059739070718
0.0006517273823147929
0.000637948790722514
0.0006324373540856024
0.0006241701991302349
0.0006021244525825888
0.000560788677805752
0.0005139414663920035
0.000469849973296711
0.00042300276188296266
0.000365132677195391
0.0002934840009155406
0.0002218353246356902
0.00016120952162966288
0.00011160659189745871
6.751509880216611e-05
2.066788738841773e-05
-2.342360570687485e-05
-5.6492225528344285e-05
-8.680512703135793e-05
-0.00010885087357900426
-0.00012814090180819475
-0.00014191949340047367
-0.00014191949340047367
-0.0001336523384451063
-0.0001391637750820179
-0.000150186648355841
-0.0001612095216296642
-0.0001584538033112084
-0.00015294236667429682
-0.00015569808499275262
-0.00016672095826657574
-0.00017498811322194308
-0.00016947667658503157
-0.00016396523994811996
-0.00016396523994811996
-0.00016947667658503157
-0.00017223239490348733
-0.00016947667658503157
-0.00015569808499275262
-0.00014743093003738526
-0.000150186648355841
-0.00015569808499275262
-0.000150186648355841
-0.0001336523384451063
-0.00012538518348973897
-0.00012814090180819475
-0.0001336523384451063
-0.00012814090180819475
-0.00011160659189746003
-9.78280003051811e-05
-0.00010058371862363688
-0.00010333943694209268
-0.00010609515526054846
-9.78280003051811e-05
-8.680512703135793e-05
-8.956084534981374e-05
-9.507228198672531e-05
-9.507228198672531e-05
-8.680512703135793e-05
-7.85379720759906e-05
-7.57822537575348e-05
-8.680512703135793e-05
-9.231656366826955e-05
-8.956084534981374e-05
-8.404940871290214e-05
-8.129369039444639e-05
-8.956084534981374e-05
-9.78280003051811e-05
-9.78280003051811e-05
-8.680512703135793e-05
-7.57822537575348e-05
-7.302653543907902e-05
-7.027081712062322e-05
-6.200366216525588e-05
-4.5469352254521147e-05
-3.995791561760957e-05
-3.720219729915378e-05
-2.342360570687485e-05
9.64501411459459e-06
4.546935225451981e-05
5.649222552834297e-05
3.720219729915245e-05
4.133577477683014e-06
-1.5156450751507488e-05
-9.64501411459592e-06
-6.889295796140132e-06
-1.7912169069963278e-05
-7.027081712062322e-05
-8.129369039444639e-05
-8.956084534981374e-05
-0.00010333943694209268
-0.0001226294651712832
-0.0001336523384451063
-0.00013089662012665053
-0.0001226294651712832
-0.0001171180285343716
-0.00012538518348973897
-0.0001364080567635621
-0.00013089662012665053
-0.0001198737468528274
-0.0001171180285343716
-0.00012538518348973897
-0.0001364080567635621
-0.0001391637750820179
-0.00011436231021591582
-3.995791561760957e-05
0.00010058371862363556
0.0002741939726863501
0.0004450485084306089
0.0006159030441748677
0.0007977804531929496
0.0010044593270771337
0.0010568179751277937
0.0006159030441748677
-0.00040371273365377345
-0.0017788161745632112
-0.002566951613641566
-0.0025641958953231104
-0.002299646936751355
-0.002026830823224232
-0.001767793301289388
-0.0014894657511253533
-0.0011394895246814685
-0.0007371546501869236
-0.0004312699168383313
-0.00023285819790951464
-0.0001171180285343716
-7.57822537575348e-05
-4.8225070572976926e-05
-9.64501411459592e-06
2.6179324025329308e-05
5.373650720988717e-05
7.02708171206219e-05
8.404940871290084e-05
0.00010058371862363556
0.00011987374685282605
0.00013916377508201656
0.00014467521171892812
0.00014191949340047234
0.00015018664835583973
0.00016672095826657444
0.00018876670481422076
0.00019427814145113231
0.00019978957808804387
0.00020530101472495543
0.00022734676127260172
0.00024663678950179223
0.00026041538109407124
0.000263171099412527
0.0002741939726863501
0.0002934840009155406
0.0003182854657816428
0.000340331212329289
0.0003568655222400236
0.00037064411383230263
0.00042851419851987416
0.0004615828183413437
0.0004808728465705341
0.0004974071564812689
0.0005277200579842825
0.0005663001144426635
0.0006021244525825888
0.0006214144808117793
0.0006407045090409697
0.0006627502555886161
0.000687551720454718
0.0007123531853208202
0.0007206203402761877
0.0007123531853208202
0.0007151089036392759
0.0007206203402761877
0.0007206203402761877
0.0007095974670023644
0.000687551720454718
0.0006544831006332488
0.0006324373540856024
0.0006021244525825888
0.0005552772411688404
0.0004891400015259016
0.00042300276188296266
0.00035410980392156795
0.0002934840009155406
0.00022734676127260172
0.0001556980849927513
9.23165636682682e-05
4.82250705729756e-05
1.5156450751506162e-05
-1.7912169069963278e-05
-5.6492225528344285e-05
-8.956084534981374e-05
-0.00010609515526054846
-0.00010885087357900426
-0.00011436231021591582
-0.00012814090180819475
-0.0001391637750820179
-0.00014467521171892948
-0.0001364080567635621
-0.0001336523384451063
-0.00014191949340047367
-0.00015294236667429682
-0.00015569808499275262
-0.00014743093003738526
-0.00014191949340047367
-0.00014467521171892948
-0.000150186648355841
-0.0001584538033112084
-0.00015569808499275262
-0.00014467521171892948
-0.00014191949340047367
-0.00015294236667429682
-0.00015569808499275262
-0.00014743093003738526
-0.0001336523384451063
-0.00012814090180819475
-0.00013089662012665053
-0.00013089662012665053
-0.0001226294651712832
-0.00011160659189746003
-0.00010333943694209268
-0.00010333943694209268
-0.00010609515526054846
-0.00010058371862363688
-8.680512703135793e-05
-7.85379720759906e-05
-8.129369039444639e-05
-7.85379720759906e-05
-6.200366216525588e-05
-5.3736507209888505e-05
-5.6492225528344285e-05
-6.751509880216745e-05
-6.751509880216745e-05
-5.9247943846800084e-05
-5.098078889143272e-05
-5.098078889143272e-05
-5.9247943846800084e-05
-6.200366216525588e-05
-6.200366216525588e-05
-5.3736507209888505e-05
-5.098078889143272e-05
-6.200366216525588e-05
-6.751509880216745e-05
-5.3736507209888505e-05
-3.169076066224221e-05
-1.7912169069963278e-05
-2.066788738841907e-05
-2.6179324025330647e-05
-2.066788738841907e-05
-6.889295796140132e-06
1.2400732433050376e-05
3.720219729915245e-05
5.9247943846798756e-05
7.02708171206219e-05
7.853797207598924e-05
7.30265354390777e-05
4.546935225451981e-05
2.3423605706873515e-05
2.066788738841773e-05
2.066788738841773e-05
1.5156450751506162e-05
-9.64501411459592e-06
-3.720219729915378e-05
-5.6492225528344285e-05
-6.751509880216745e-05
-7.302653543907902e-05
-7.85379720759906e-05
-8.956084534981374e-05
-9.78280003051811e-05
-9.507228198672531e-05
-8.404940871290214e-05
-8.404940871290214e-05
-8.956084534981374e-05
-9.78280003051811e-05
-9.78280003051811e-05
-8.680512703135793e-05
-8.404940871290214e-05
-9.507228198672531e-05
-0.00010058371862363688
-6.475938048371164e-05
3.9957915617608246e-05
0.00020530101472495543
0.00037064411383230263
0.0005222086213473709
0.0006847960021362622
0.0008997420309758136
0.001089886594949263
0.0009906807354848547
0.0003568655222400236
-0.000795024734874495
-0.002026830823224232
-0.002487035782406348
-0.002332715556572824
-0.0018559762874799726
-0.0015914273289082171
-0.0012607411306935232
-0.0008473833829251552
-0.0004974071564812702
-0.00027419397268635144
-0.0001336523384451063
-5.9247943846800084e-05
-1.7912169069963278e-05
6.8892957961388014e-06
2.6179324025329308e-05
5.373650720988717e-05
8.404940871290084e-05
0.00010333943694209132
0.00011160659189745871
0.00011711802853437029
0.0001253851834897376
0.00014467521171892812
0.0001556980849927513
0.00016120952162966288
0.00016396523994811866
0.000172232394903486
0.00018876670481422076
0.00020254529640649968
0.00020805673304341124
0.000210812451361867
0.0002218353246356902
0.00024388107118333642
0.00026592681773098274
0.0002769496910048059
0.0002824611276417174
0.00029623971923399637
0.00032379690241855427
0.0003485983672846564
0.000365132677195391
0.00037891126878767
0.000392689860379949
0.00041749132524605104
0.0004478042267490647
0.00047536140993362247
0.0004946514381628131
0.0005111857480735478
0.0005387429312581057
0.0005718115510795751
0.0005938572976272215
0.0006076358892195001
0.0006214144808117793
0.000637948790722514
0.0006572388189517045
0.0006737731288624392
0.0006710174105439835
0.0006599945372701603
0.0006572388189517045
0.0006627502555886161
0.0006599945372701603
0.0006351930724040583
0.0006048801709010444
0.0005745672693980309
0.0005442543678950173
0.0005139414663920035
0.0004588271000228878
0.000392689860379949
0.00032379690241855427
0.00026592681773098274
0.0002135681696803228
0.00016120952162966288
0.00010333943694209132
5.098078889143139e-05
-1.377859159228559e-06
-2.066788738841907e-05
-4.8225070572976926e-05
-7.302653543907902e-05
-8.680512703135793e-05
-8.404940871290214e-05
-8.680512703135793e-05
-9.78280003051811e-05
-0.00011160659189746003
-0.00011436231021591582
-0.00010885087357900426
-0.00010609515526054846
-0.00010885087357900426
-0.0001198737468528274
-0.00012538518348973897
-0.0001171180285343716
-0.00011160659189746003
-0.00011436231021591582
-0.00012538518348973897
-0.00012814090180819475
-0.0001171180285343716
-0.00010885087357900426
-0.00011160659189746003
-0.00012538518348973897
-0.00012814090180819475
-0.0001198737468528274
-0.00010609515526054846
-0.00010333943694209268
-0.00010885087357900426
-0.00011160659189746003
-0.00010333943694209268
-9.231656366826955e-05
-8.404940871290214e-05
-8.680512703135793e-05
-9.507228198672531e-05
-8.956084534981374e-05
-8.129369039444639e-05
-7.302653543907902e-05
-7.302653543907902e-05
-7.85379720759906e-05
-7.57822537575348e-05
-6.751509880216745e-05
-5.9247943846800084e-05
-6.200366216525588e-05
-7.027081712062322e-05
-7.302653543907902e-05
-6.200366216525588e-05
-5.3736507209888505e-05
-5.6492225528344285e-05
-6.751509880216745e-05
-7.302653543907902e-05
-6.751509880216745e-05
-5.9247943846800084e-05
-6.200366216525588e-05
-7.027081712062322e-05
-7.57822537575348e-05
-5.9247943846800084e-05
-3.4446478980697995e-05
-2.066788738841907e-05
-2.066788738841907e-05
-2.342360570687485e-05
-1.7912169069963278e-05
-1.377859159228559e-06
1.7912169069961946e-05
3.9957915617608246e-05
6.475938048371032e-05
7.853797207598924e-05
8.129369039444505e-05
7.02708171206219e-05
1.7912169069961946e-05
1.5156450751506162e-05
1.7912169069961946e-05
9.64501411459459e-06
-1.240073243305171e-05
-3.720219729915378e-05
-6.200366216525588e-05
-7.85379720759906e-05
-8.404940871290214e-05
-8.956084534981374e-05
-0.00010333943694209268
-0.00011160659189746003
-0.00010333943694209268
-8.956084534981374e-05
-8.956084534981374e-05
-9.78280003051811e-05
-0.00010609515526054846
-0.00010609515526054846
-0.00010058371862363688
-9.78280003051811e-05
-0.00010885087357900426
-0.00011436231021591582
-8.680512703135793e-05
4.133577477683014e-06
0.0001556980849927513
0.0003182854657816428
0.000469849973296711
0.0006296816357671465
0.0008280933546959632
0.0010265050736247801
0.0010127264820325008
0.0005111857480735478
-0.0005442543678950186
-0.0018449534142061495
-0.002445700007629512
-0.002352005584802014
-0.0021205252460517283
-0.0018807777523460753
-0.0015804044556343942
-0.0011918481727321284
-0.0007702232700083929
-0.00044504850843061025
-0.00024388107118333775
-0.00012814090180819475
-6.200366216525588e-05
-2.342360570687485e-05
-1.377859159228559e-06
1.7912169069961946e-05
4.546935225451981e-05
7.30265354390777e-05
8.956084534981241e-05
9.23165636682682e-05
9.23165636682682e-05
0.00010058371862363556
0.00011987374685282605
0.00013365233844510492
0.00013640805676356078
0.00013365233844510492
0.00014467521171892812
0.00015845380331120705
0.00016672095826657444
0.00017498811322194178
0.00017774383154039756
0.00018601098649576498
0.00020805673304341124
0.00023010247959105753
0.00024388107118333642
0.0002493925078202481
0.0002824611276417174
0.0003127740291447311
0.00032379690241855427
0.00033206405737392166
0.0003485983672846564
0.0003733998321507585
0.0004064684519722279
0.00042851419851987416
0.0004367813534752416
0.0004505599450675205
0.00047536140993362247
0.000508430029755092
0.0005332314946211942
0.0005442543678950173
0.0005552772411688404
0.0005718115510795751
0.0005883458609903097
0.0006021244525825888
0.0006021244525825888
0.0005938572976272215
0.0005883458609903097
0.0005938572976272215
0.0005911015793087656
0.0005718115510795751
0.0005442543678950173
0.0005194529030289152
0.0004974071564812689
0.0004670942549782553
0.00042024704356450677
0.00035410980392156795
0.00029072828259708476
0.00024112535286488067
0.00019152242313267648
0.00013640805676356078
7.853797207598924e-05
3.169076066224089e-05
1.3778591592272275e-06
-2.342360570687485e-05
-4.8225070572976926e-05
-7.57822537575348e-05
-9.78280003051811e-05
-0.00010885087357900426
-0.00010885087357900426
-0.00011436231021591582
-0.00012814090180819475
-0.0001391637750820179
-0.0001391637750820179
-0.0001336523384451063
-0.00013089662012665053
-0.0001391637750820179
-0.000150186648355841
-0.000150186648355841
-0.00014191949340047367
-0.0001336523384451063
-0.0001391637750820179
-0.000150186648355841
-0.000150186648355841
-0.00014191949340047367
-0.00013089662012665053
-0.0001336523384451063
-0.00014467521171892948
-0.000150186648355841
-0.00014191949340047367
-0.0001364080567635621
-0.00013089662012665053
-0.0001391637750820179
-0.00014743093003738526
-0.00014191949340047367
-0.00012814090180819475
-0.00013089662012665053
-0.0001364080567635621
-0.00013089662012665053
-0.0001226294651712832
-0.00011436231021591582
-0.0001198737468528274
-0.00012814090180819475
-0.00012538518348973897
-0.00011160659189746003
-0.00010333943694209268
-0.00011160659189746003
-0.0001198737468528274
-0.0001171180285343716
-0.00010885087357900426
-0.00010058371862363688
-0.00010333943694209268
-0.0001171180285343716
-0.0001198737468528274
-0.00011436231021591582
-0.00010885087357900426
-0.00010885087357900426
-0.0001171180285343716
-0.00012538518348973897
-0.0001226294651712832
-0.00010885087357900426
-0.00010333943694209268
-0.00010058371862363688
-9.231656366826955e-05
-8.129369039444639e-05
-6.751509880216745e-05
-5.9247943846800084e-05
-6.751509880216745e-05
-7.027081712062322e-05
-4.2713633936065354e-05
4.133577477683014e-06
3.444647898069667e-05
2.8935042343785094e-05
1.2400732433050376e-05
-9.64501411459592e-06
-2.066788738841907e-05
-2.6179324025330647e-05
-3.4446478980697995e-05
-5.098078889143272e-05
-6.751509880216745e-05
-7.85379720759906e-05
-9.231656366826955e-05
-0.0001198737468528274
-0.00014467521171892948
-0.00015569808499275262
-0.00015569808499275262
-0.00014467521171892948
-0.000150186648355841
-0.0001612095216296642
-0.00016672095826657574
-0.0001584538033112084
-0.00014743093003738526
-0.00014743093003738526
-0.0001612095216296642
-0.00016947667658503157
-0.00016672095826657574
-0.0001612095216296642
-0.000150186648355841
-0.00010609515526054846
1.2400732433050376e-05
0.00018049954985885336
0.0003568655222400236
0.0005139414663920035
0.0009135206225680924
0.0010678408484016168
0.0008225819180590517
1.3778591592272275e-06
-0.0013406569619287408
-0.0023244484016174565
-0.002448455725947967
-0.0022059525139238576
-0.0019634493018997486
-0.0017181903715571835
-0.0014233285114824145
-0.0010292607919432368
-0.0006407045090409712
-0.00037891126878767127
-0.00023285819790951464
-0.00016672095826657574
-0.00013089662012665053
-9.507228198672531e-05
-5.6492225528344285e-05
-3.169076066224221e-05
-1.7912169069963278e-05
-6.889295796140132e-06
9.64501411459459e-06
3.169076066224089e-05
4.546935225451981e-05
4.546935225451981e-05
4.271363393606403e-05
5.649222552834297e-05
7.578225375753347e-05
8.68051270313566e-05
8.956084534981241e-05
9.23165636682682e-05
0.00010058371862363556
0.00011711802853437029
0.00013916377508201656
0.00014743093003738393
0.00015294236667429551
0.00016396523994811866
0.00018049954985885336
0.00020254529640649968
0.0002190796063172344
0.0002218353246356902
0.00023285819790951333
0.00026041538109407124
0.0002852168459601733
0.00030450687418936376
0.000315529747463187
0.0003293083390554659
0.00035135408560311223
0.0003844227054245816
0.00040371273365377215
0.00041749132524605104
0.00043126991683832994
0.000456071381704432
0.0004808728465705341
0.0004974071564812689
0.0005056743114366363
0.000508430029755092
0.0005139414663920035
0.0005222086213473709
0.0005277200579842825
0.0005194529030289152
0.0005001628747997245
0.0004891400015259016
0.00048362856488898997
0.000469849973296711
0.0004340256351567857
0.0003954455786984048
0.00031001831082627527
0.000263171099412527
0.00020254529640649968
0.00013365233844510492
7.578225375753347e-05
3.444647898069667e-05
-1.377859159228559e-06
-3.995791561760957e-05
-8.680512703135793e-05
-0.0001198737468528274
-0.0001336523384451063
-0.00014467521171892948
-0.00015569808499275262
-0.00017498811322194308
-0.00019427814145113364
-0.0001997895780880452
-0.00019427814145113364
-0.00019427814145113364
-0.00020254529640650095
-0.0002108124513618684
-0.00021356816968032413
-0.0002080567330434125
-0.00020530101472495681
-0.0002080567330434125
-0.00021632388799877996
-0.0002190796063172357
-0.0002080567330434125
-0.00020254529640650095
-0.00020530101472495681
-0.00021632388799877996
-0.00021632388799877996
-0.0002108124513618684
-0.00019703385976958942
-0.00019703385976958942
-0.00020530101472495681
-0.0002080567330434125
-0.0001997895780880452
-0.00019152242313267784
-0.00018601098649576628
-0.00019427814145113364
-0.00019703385976958942
-0.00018876670481422206
-0.00017498811322194308
-0.00017498811322194308
-0.00018049954985885472
-0.00018325526817731047
-0.00018049954985885472
-0.00017498811322194308
-0.00016672095826657574
-0.00017223239490348733
-0.0001777438315403989
-0.0001777438315403989
-0.00016396523994811996
-0.00015569808499275262
-0.0001612095216296642
-0.00016947667658503157
-0.00017498811322194308
-0.00016947667658503157
-0.0001584538033112084
-0.0001584538033112084
-0.00016947667658503157
-0.00017498811322194308
-0.00017223239490348733
-0.00016672095826657574
-0.00016672095826657574
-0.00017223239490348733
-0.00016672095826657574
-0.00014467521171892948
-0.00012814090180819475
-0.00012538518348973897
-0.00012814090180819475
-0.0001198737468528274
-8.956084534981374e-05
-5.098078889143272e-05
-2.8935042343786426e-05
-3.4446478980697995e-05
-4.8225070572976926e-05
-5.9247943846800084e-05
-7.57822537575348e-05
-9.231656366826955e-05
-0.00010333943694209268
-0.00011160659189746003
-0.0001171180285343716
-0.00013089662012665053
-0.00015569808499275262
-0.00018325526817731047
-0.00020254529640650095
-0.00020254529640650095
-0.00019703385976958942
-0.00020530101472495681
-0.00021632388799877996
-0.0002218353246356915
-0.00021632388799877996
-0.00020530101472495681
-0.0002080567330434125
-0.00021632388799877996
-0.0002218353246356915
-0.00021632388799877996
-0.0002108124513618684
-0.0002108124513618684
-0.0002108124513618684
-0.0001612095216296642
-3.4446478980697995e-05
0.00013640805676356078
0.00031001831082627527
0.0004615828183413437
0.0006599945372701603
0.0009355663691157388
0.0011229552147707324
0.0008694291294728002
-1.240073243305171e-05
-0.001409549919890136
-0.00233547127489128
-0.0023933413595788513
-0.002145326710917831
-0.0019331364003967355
-0.001712678934920272
-0.0014288399481193262
-0.00104028366521706
-0.0006599945372701616
-0.0004312699168383313
-0.0002962397192339978
-0.00022734676127260308
-0.00018049954985885472
-0.00014191949340047367
-0.0001171180285343716
-9.78280003051811e-05
-8.129369039444639e-05
-5.6492225528344285e-05
-3.169076066224221e-05
-2.342360570687485e-05
-2.342360570687485e-05
-1.7912169069963278e-05
-6.889295796140132e-06
1.2400732433050376e-05
2.8935042343785094e-05
2.8935042343785094e-05
3.720219729915245e-05
5.9247943846798756e-05
7.578225375753347e-05
8.129369039444505e-05
8.404940871290084e-05
9.507228198672396e-05
0.00011987374685282605
0.00014191949340047234
0.00014743093003738393
0.0001556980849927513
0.000172232394903486
0.0001970338597695881
0.0002218353246356902
0.0002383696345464249
0.0002493925078202481
0.000263171099412527
0.0002879725642786291
0.0003182854657816428
0.000340331212329289
0.00035410980392156795
0.00036788839551384685
0.000392689860379949
0.00041749132524605104
0.0004395370717936973
0.0004505599450675205
0.0004533156633859763
0.0004643385366597993
0.00047536140993362247
0.0004808728465705341
0.00047536140993362247
0.0004615828183413437
0.000456071381704432
0.0004505599450675205
0.0004422927901121532
0.00041473560692759526
0.0003844227054245816
0.00034584264896620056
0.00031001831082627527
0.0002686825360494386
0.000210812451361867
0.00014467521171892812
8.129369039444505e-05
3.444647898069667e-05
-4.133577477684346e-06
-5.098078889143272e-05
-9.78280003051811e-05
-0.0001336523384451063
-0.00015569808499275262
-0.00016947667658503157
-0.00018876670481422206
-0.0002108124513618684
-0.00023010247959105888
-0.00023561391622797047
-0.00023285819790951464
-0.00023561391622797047
-0.0002466367895017936
-0.00025765966277561676
-0.00025765966277561676
-0.00024939250782024937
-0.00024388107118333775
-0.0002521482261387052
-0.0002631710994125282
-0.0002631710994125282
-0.0002521482261387052
-0.00024388107118333775
-0.0002466367895017936
-0.00025765966277561676
-0.00026592681773098404
-0.00024939250782024937
-0.00024388107118333775
-0.0002521482261387052
-0.00025765966277561676
-0.0002466367895017936
-0.00023010247959105888
-0.00023010247959105888
-0.00024112535286488197
-0.00024388107118333775
-0.00023285819790951464
-0.0002218353246356915
-0.0002218353246356915
-0.00022734676127260308
-0.00023010247959105888
-0.0002190796063172357
-0.0002080567330434125
-0.00020530101472495681
-0.0002080567330434125
-0.00021356816968032413
-0.0002108124513618684
-0.00020530101472495681
-0.0001997895780880452
-0.00020254529640650095
-0.00021356816968032413
-0.00021356816968032413
-0.0001997895780880452
-0.00019703385976958942
-0.00020254529640650095
-0.00021356816968032413
-0.00021632388799877996
-0.0002080567330434125
-0.0001997895780880452
-0.00020530101472495681
-0.00020530101472495681
-0.00019703385976958942
-0.00018049954985885472
-0.00016396523994811996
-0.0001584538033112084
-0.00016672095826657574
-0.00016672095826657574
-0.00014467521171892948
-0.00010058371862363688
-6.751509880216745e-05
-6.475938048371164e-05
-8.129369039444639e-05
-0.00010058371862363688
-0.00011436231021591582
-0.0001198737468528274
-0.00012814090180819475
-0.00014743093003738526
-0.0001612095216296642
-0.00016672095826657574
-0.00018325526817731047
-0.00021356816968032413
-0.00024112535286488197
-0.0002466367895017936
-0.00023836963454642628
-0.00023561391622797047
-0.00023836963454642628
-0.00024388107118333775
-0.0002466367895017936
-0.00024112535286488197
-0.00023285819790951464
-0.00023836963454642628
-0.0002466367895017936
-0.0002521482261387052
-0.0002521482261387052
-0.00024388107118333775
-0.00020254529640650095
-8.956084534981374e-05
8.129369039444505e-05
0.00027143825436789435
0.00043126991683832994
0.0006324373540856024
0.0009245434958419158
0.0011560238345922017
0.0009658792706187528
0.0001253851834897376
-0.0013048326237888157
-0.002313425528343633
-0.0024208985427634083
-0.0021728838941023885
-0.0019551821469443813
-0.001742991836423286
-0.001483954314488442
-0.001120199496452278
-0.0007343989318684678
-0.00048362856488899143
-0.0003458426489662019
-0.00027694969100480727
-0.00024112535286488197
-0.0001997895780880452
-0.0001612095216296642
-0.0001364080567635621
-0.0001226294651712832
-0.00010885087357900426
-8.680512703135793e-05
-6.475938048371164e-05
-5.3736507209888505e-05
-5.6492225528344285e-05
-5.6492225528344285e-05
-3.720219729915378e-05
-1.5156450751507488e-05
-6.889295796140132e-06
-4.133577477684346e-06
-1.377859159228559e-06
1.2400732433050376e-05
3.444647898069667e-05
4.82250705729756e-05
5.373650720988717e-05
6.200366216525454e-05
7.853797207598924e-05
0.00010333943694209132
0.0001253851834897376
0.00013640805676356078
0.00014467521171892812
0.00015845380331120705
0.0001832552681773092
0.000210812451361867
0.00023010247959105753
0.00024663678950179223
0.00026592681773098274
0.0002934840009155406
0.00032379690241855427
0.00035135408560311223
0.0003596212405584795
0.00037615555046921414
0.0004064684519722279
0.0004395370717936973
0.0004615828183413437
0.000469849973296711
0.00047536140993362247
0.0004863842832074457
0.0004974071564812689
0.0004918957198443572
0.0004808728465705341
0.0004615828183413437
0.000456071381704432
0.0004395370717936973
0.00040371273365377215
0.0003568655222400236
0.0003127740291447311
0.0002686825360494386
0.00021632388799877858
0.00014467521171892812
7.02708171206219e-05
1.5156450751506162e-05
-2.6179324025330647e-05
-7.027081712062322e-05
-0.00011436231021591582
-0.0001612095216296642
-0.00019427814145113364
-0.0002108124513618684
-0.0002218353246356915
-0.00024112535286488197
-0.00025765966277561676
-0.00027419397268635144
-0.00027970540932326305
-0.00027694969100480727
-0.00027970540932326305
-0.00029072828259708617
-0.00030175115587090934
-0.0002989954375524536
-0.00029348400091554195
-0.00029072828259708617
-0.00029348400091554195
-0.00030175115587090934
-0.0003045068741893651
-0.0002989954375524536
-0.0002852168459601746
-0.00028797256427863044
-0.0002962397192339978
-0.0002962397192339978
-0.0002824611276417188
-0.00027419397268635144
-0.00027694969100480727
-0.0002824611276417188
-0.00027970540932326305
-0.00027143825436789566
-0.0002604153810940725
-0.0002549039444571609
-0.0002631710994125282
-0.0002631710994125282
-0.0002549039444571609
-0.0002466367895017936
-0.00024112535286488197
-0.00024388107118333775
-0.0002466367895017936
-0.00023836963454642628
-0.0002218353246356915
-0.00022459104295414727
-0.00023285819790951464
-0.00023836963454642628
-0.00023285819790951464
-0.0002218353246356915
-0.0002218353246356915
-0.00023010247959105888
-0.00023836963454642628
-0.00023561391622797047
-0.0002218353246356915
-0.00020530101472495681
-0.00020254529640650095
-0.00020530101472495681
-0.00019703385976958942
-0.00018601098649576628
-0.0001777438315403989
-0.00017498811322194308
-0.00014743093003738526
-0.00010058371862363688
-7.027081712062322e-05
-7.302653543907902e-05
-9.78280003051811e-05
-0.00012814090180819475
-0.0001336523384451063
-0.00013089662012665053
-0.0001336523384451063
-0.000150186648355841
-0.00018049954985885472
-0.0001997895780880452
-0.00020530101472495681
-0.0002190796063172357
-0.00024112535286488197
-0.00024939250782024937
-0.00024939250782024937
-0.00024388107118333775
-0.00024112535286488197
-0.00024939250782024937
-0.0002604153810940725
-0.0002549039444571609
-0.0002466367895017936
-0.00024388107118333775
-0.0002466367895017936
-0.0002549039444571609
-0.00025765966277561676
-0.00024939250782024937
-0.00021356816968032413
-0.0001171180285343716
3.9957915617608246e-05
0.00021632388799877858
0.0003954455786984048
0.0005800787060349425
0.000806047608148317
0.0010265050736247801
0.000960367833981841
0.00031001831082627527
-0.000963123552300298
-0.0022500440070191505
-0.0026523788815136957
-0.0024760129091325246
-0.002203196795605402
-0.0019579378652628365
-0.0017209460898756396
-0.0014371071030746935
-0.0010623294117647064
-0.0006875517204547195
-0.00045055994506752175
-0.0002989954375524536
-0.0002190796063172357
-0.00018325526817731047
-0.00014743093003738526
-0.00010885087357900426
-7.85379720759906e-05
-6.200366216525588e-05
-5.098078889143272e-05
-3.169076066224221e-05
-9.64501411459592e-06
6.8892957961388014e-06
1.2400732433050376e-05
1.5156450751506162e-05
2.3423605706873515e-05
4.271363393606403e-05
6.475938048371032e-05
7.853797207598924e-05
8.129369039444505e-05
0.00010058371862363556
0.0001253851834897376
0.00014191949340047234
0.00015018664835583973
0.00015845380331120705
0.00017498811322194178
0.00020254529640649968
0.00022734676127260172
0.00023561391622796914
0.00025214822613870384
0.00027970540932326175
0.000315529747463187
0.00034584264896620056
0.00036788839551384685
0.0003844227054245816
0.0004092241702906837
0.0004450485084306089
0.0004808728465705341
0.0005056743114366363
0.0005194529030289152
0.0005414986495765614
0.0005745672693980309
0.000599368734264133
0.0006103916075379561
0.0006103916075379561
0.0006103916075379561
0.0006214144808117793
0.0006269259174486908
0.0006159030441748677
0.0005938572976272215
0.0005718115510795751
0.0005525215228503846
0.0005277200579842825
0.0004891400015259016
0.00042851419851987416
0.0003596212405584795
0.0002989954375524522
0.00023561391622796914
0.00016396523994811866
9.23165636682682e-05
2.3423605706873515e-05
-2.8935042343786426e-05
-6.751509880216745e-05
-0.00010058371862363688
-0.00014191949340047367
-0.0001777438315403989
-0.00020254529640650095
-0.0002080567330434125
-0.0002108124513618684
-0.0002218353246356915
-0.00023836963454642628
-0.0002466367895017936
-0.0002466367895017936
-0.00024388107118333775
-0.00024939250782024937
-0.0002604153810940725
-0.0002631710994125282
-0.0002549039444571609
-0.00024939250782024937
-0.0002521482261387052
-0.0002604153810940725
-0.0002631710994125282
-0.00025765966277561676
-0.00024939250782024937
-0.00024939250782024937
-0.0002549039444571609
-0.00025765966277561676
-0.00024388107118333775
-0.00023285819790951464
-0.00023285819790951464
-0.00023285819790951464
-0.00023010247959105888
-0.0002190796063172357
-0.00020530101472495681
-0.00020254529640650095
-0.00020530101472495681
-0.00020254529640650095
-0.00019152242313267784
-0.00018049954985885472
-0.00018325526817731047
-0.00018601098649576628
-0.00018601098649576628
-0.0001777438315403989
-0.00016396523994811996
-0.00016672095826657574
-0.00018049954985885472
-0.00018325526817731047
-0.00017223239490348733
-0.0001584538033112084
-0.0001584538033112084
-0.00015569808499275262
-0.00014743093003738526
-0.0001391637750820179
-0.00012538518348973897
-0.0001198737468528274
-0.00012814090180819475
-0.00013089662012665053
-0.00010609515526054846
-6.475938048371164e-05
-2.8935042343786426e-05
-2.066788738841907e-05
-3.720219729915378e-05
-5.098078889143272e-05
-6.200366216525588e-05
-6.475938048371164e-05
-7.57822537575348e-05
-9.507228198672531e-05
-0.00010058371862363688
-0.00010609515526054846
-0.0001226294651712832
-0.00014467521171892948
-0.00017223239490348733
-0.00019152242313267784
-0.00018601098649576628
-0.0001777438315403989
-0.0001777438315403989
-0.00018876670481422206
-0.00019703385976958942
-0.00018601098649576628
-0.00018049954985885472
-0.00018325526817731047
-0.00019427814145113364
-0.0001997895780880452
-0.00019427814145113364
-0.00018601098649576628
-0.00017498811322194308
-0.0001391637750820179
-3.169076066224221e-05
0.00015018664835583973
0.000340331212329289
0.0005139414663920035
0.0006737731288624392
0.0008639176928358884
0.0009961921721217662
0.0007343989318684667
-0.0014288399481193262
-0.0025063258106355385
-0.0027019818112459
-0.0024512114442664236
-0.002170128175783933
-0.0019166020904860003
-0.0016575645685511565
-0.001324122652018006
-0.0008942305943389032
-0.0005414986495765627
-0.0003293083390554673
-0.00020254529640650095
-0.00014191949340047367
-9.231656366826955e-05
-4.5469352254521147e-05
-1.5156450751507488e-05
-1.377859159228559e-06
1.2400732433050376e-05
3.720219729915245e-05
6.200366216525454e-05
7.853797207598924e-05
7.853797207598924e-05
7.578225375753347e-05
9.23165636682682e-05
0.00011436231021591448
0.00013089662012664922
0.00013640805676356078
0.00013640805676356078
0.00014743093003738393
0.0001694766765850302
0.00018876670481422076
0.0001970338597695881
0.00020254529640649968
0.00021632388799877858
0.00024388107118333642
0.00026592681773098274
0.0002769496910048059
0.0002879725642786291
0.00030450687418936376
0.00033206405737392166
0.000365132677195391
0.000392689860379949
0.00040371273365377215
0.00042300276188296266
0.0004533156633859763
0.0004918957198443572
0.0005222086213473709
0.0005387429312581057
0.000560788677805752
0.0005911015793087656
0.0006269259174486908
0.0006462159456778814
0.0006572388189517045
0.0006627502555886161
0.0006737731288624392
0.0006847960021362622
0.0006903074387731741
0.0006737731288624392
0.0006544831006332488
0.0006434602273594254
0.0006296816357671465
0.0006103916075379561
0.0005745672693980309
0.0005222086213473709
0.0004615828183413437
0.0004092241702906837
0.00035135408560311223
0.00027970540932326175
0.00013365233844510492
8.68051270313566e-05
5.098078889143139e-05
6.8892957961388014e-06
-3.720219729915378e-05
-7.302653543907902e-05
-9.507228198672531e-05
-0.00010058371862363688
-0.00011436231021591582
-0.0001336523384451063
-0.00014467521171892948
-0.00014743093003738526
-0.00014191949340047367
-0.0001391637750820179
-0.00014743093003738526
-0.0001612095216296642
-0.00016396523994811996
-0.00015569808499275262
-0.000150186648355841
-0.0001584538033112084
-0.00016396523994811996
-0.00016672095826657574
-0.0001584538033112084
-0.000150186648355841
-0.00015294236667429682
-0.00016396523994811996
-0.00016672095826657574
-0.00015569808499275262
-0.00014743093003738526
-0.00014743093003738526
-0.00015569808499275262
-0.0001584538033112084
-0.00014743093003738526
-0.00012814090180819475
-0.00012814090180819475
-0.00012814090180819475
-0.00012814090180819475
-0.0001171180285343716
-0.00010333943694209268
-9.78280003051811e-05
-0.00010333943694209268
-0.00010609515526054846
-0.00010058371862363688
-8.956084534981374e-05
-8.129369039444639e-05
-8.680512703135793e-05
-9.231656366826955e-05
-8.956084534981374e-05
-7.85379720759906e-05
-7.027081712062322e-05
-6.751509880216745e-05
-6.200366216525588e-05
-5.098078889143272e-05
-3.169076066224221e-05
-2.066788738841907e-05
-2.342360570687485e-05
-2.8935042343786426e-05
-2.066788738841907e-05
1.5156450751506162e-05
5.9247943846798756e-05
7.853797207598924e-05
6.475938048371032e-05
4.546935225451981e-05
3.169076066224089e-05
2.3423605706873515e-05
1.7912169069961946e-05
1.3778591592272275e-06
-9.64501411459592e-06
-1.7912169069963278e-05
-4.5469352254521147e-05
-6.751509880216745e-05
-9.507228198672531e-05
-0.00010058371862363688
-9.231656366826955e-05
-8.956084534981374e-05
-9.507228198672531e-05
-0.00010609515526054846
-0.00010885087357900426
-9.78280003051811e-05
-9.507228198672531e-05
-0.00010058371862363688
-0.00011160659189746003
-0.00011160659189746003
-0.00010609515526054846
-9.78280003051811e-05
-7.85379720759906e-05
-1.377859159228559e-06
0.00015845380331120705
0.00035135408560311223
0.0005304757763027383
0.0006985745937285414
0.0008887191577019906
0.0010705965667200726
0.0010209936369878683
0.0004615828183413437
-0.0006434602273594267
-0.0019414035553521024
-0.002484280064087893
-0.002349249866483559
-0.002090212344548715
-0.0018532205691615172
-0.0015941830472266732
-0.0012524739757381555
-0.0008225819180590531
-0.00045882710002288904
-0.00023561391622797047
-0.0001198737468528274
-6.751509880216745e-05
-2.8935042343786426e-05
9.64501411459459e-06
3.9957915617608246e-05
5.9247943846798756e-05
7.578225375753347e-05
8.956084534981241e-05
0.00010609515526054714
0.00011987374685282605
0.00012814090180819342
0.00012814090180819342
0.00013640805676356078
0.00015294236667429551
0.0001694766765850302
0.00017774383154039756
0.00017774383154039756
0.00018049954985885336
0.0001970338597695881
0.0002218353246356902
0.00023561391622796914
0.00024112535286488067
0.0002493925078202481
0.00026592681773098274
0.0002934840009155406
0.0003127740291447311
0.00032104118410009855
0.00033206405737392166
0.00035410980392156795
0.0003816669871061258
0.0004092241702906837
0.0004395370717936973
0.0004615828183413437
0.0004918957198443572
0.0005222086213473709
0.0005442543678950173
0.0005552772411688404
0.0005773229877164866
0.0006076358892195001
0.0006351930724040583
0.0006434602273594254
0.0006462159456778814
0.0006489716639963371
0.0006572388189517045
0.0006682616922255276
0.0006682616922255276
0.0006517273823147929
0.0006351930724040583
0.0006241701991302349
0.0006103916075379561
0.0005828344243533982
0.0005387429312581057
0.0004863842832074457
0.0004395370717936973
0.00038717842374303736
0.0003293083390554659
0.0002576596627756154
0.00019427814145113231
0.00014467521171892812
0.00011160659189745871
8.129369039444505e-05
3.9957915617608246e-05
-1.377859159228559e-06
-2.6179324025330647e-05
-3.4446478980697995e-05
-3.720219729915378e-05
-5.3736507209888505e-05
-7.027081712062322e-05
-7.85379720759906e-05
-7.57822537575348e-05
-7.027081712062322e-05
-7.302653543907902e-05
-8.404940871290214e-05
-8.956084534981374e-05
-8.404940871290214e-05
-7.57822537575348e-05
-7.57822537575348e-05
-8.680512703135793e-05
-9.231656366826955e-05
-8.956084534981374e-05
-7.85379720759906e-05
-7.302653543907902e-05
-8.129369039444639e-05
-8.680512703135793e-05
-8.129369039444639e-05
-7.027081712062322e-05
-6.475938048371164e-05
-7.027081712062322e-05
-7.302653543907902e-05
-7.302653543907902e-05
-5.6492225528344285e-05
-4.8225070572976926e-05
-5.098078889143272e-05
-5.9247943846800084e-05
-5.6492225528344285e-05
-5.098078889143272e-05
-3.995791561760957e-05
-3.720219729915378e-05
-4.2713633936065354e-05
-3.4446478980697995e-05
-2.342360570687485e-05
-2.066788738841907e-05
-2.6179324025330647e-05
-3.169076066224221e-05
-2.8935042343786426e-05
-1.5156450751507488e-05
-1.240073243305171e-05
-2.066788738841907e-05
-2.342360570687485e-05
-1.7912169069963278e-05
-1.377859159228559e-06
2.066788738841773e-05
2.6179324025329308e-05
2.6179324025329308e-05
3.169076066224089e-05
4.271363393606403e-05
4.82250705729756e-05
6.200366216525454e-05
8.404940871290084e-05
0.00011711802853437029
0.00014467521171892812
0.00014743093003738393
0.0001253851834897376
9.23165636682682e-05
7.30265354390777e-05
7.578225375753347e-05
7.853797207598924e-05
6.751509880216611e-05
3.9957915617608246e-05
1.5156450751506162e-05
6.8892957961388014e-06
-6.889295796140132e-06
-2.066788738841907e-05
-3.169076066224221e-05
-3.995791561760957e-05
-3.995791561760957e-05
-3.169076066224221e-05
-3.4446478980697995e-05
-4.2713633936065354e-05
-4.8225070572976926e-05
-4.5469352254521147e-05
-3.169076066224221e-05
-2.6179324025330647e-05
-3.720219729915378e-05
-4.8225070572976926e-05
-4.5469352254521147e-05
-1.240073243305171e-05
8.129369039444505e-05
0.00023285819790951333
0.0004064684519722279
0.0005745672693980309
0.0007426660868238338
0.0009383220874341949
0.0011174437781338207
0.0010733522850385282
0.0005277200579842825
-0.0005745672693980323
-0.0018394419775692383
-0.0023547613031204705
-0.0022335096971084155
-0.001996517921721218
-0.001748503273060197
-0.001453641412985428
-0.0010788637216754414
-0.000668261692225529
-0.0003513540856031135
-0.00015294236667429682
1.2400732433050376e-05
3.9957915617608246e-05
6.751509880216611e-05
9.782800030517979e-05
0.00013089662012664922
0.0001556980849927513
0.00016120952162966288
0.00016396523994811866
0.000172232394903486
0.00019152242313267648
0.00020805673304341124
0.000210812451361867
0.0002135681696803228
0.0002190796063172344
0.00023561391622796914
0.00025214822613870384
0.0002576596627756154
0.00026041538109407124
0.0002686825360494386
0.0002879725642786291
0.0003127740291447311
0.00032379690241855427
0.00033206405737392166
0.0003430869306477448
0.0003623769588769353
0.00038993414206149314
0.0004064684519722279
0.00041473560692759526
0.00043126991683832994
0.000456071381704432
0.0004863842832074457
0.000508430029755092
0.0005222086213473709
0.0005332314946211942
0.000560788677805752
0.0005938572976272215
0.0006186587624933234
0.0006296816357671465
0.0006434602273594254
0.0006627502555886161
0.000679284565499351
0.0006958188754100854
0.0006985745937285414
0.0006958188754100854
0.0006903074387731741
0.0006958188754100854
0.0006985745937285414
0.0006820402838178067
0.0006627502555886161
0.0006434602273594254
0.0006214144808117793
0.0005966130159456772
0.0005525215228503846
0.0004918957198443572
0.00043126991683832994
0.00037891126878767
0.0003293083390554659
0.0002741939726863501
0.0002135681696803228
0.00015845380331120705
0.00012262946517128183
9.782800030517979e-05
7.02708171206219e-05
3.444647898069667e-05
9.64501411459459e-06
-4.133577477684346e-06
-6.889295796140132e-06
-9.64501411459592e-06
-3.720219729915378e-05
-3.995791561760957e-05
-3.169076066224221e-05
-2.6179324025330647e-05
-3.4446478980697995e-05
-4.5469352254521147e-05
-4.8225070572976926e-05
-4.2713633936065354e-05
-3.720219729915378e-05
-3.995791561760957e-05
-4.5469352254521147e-05
-4.8225070572976926e-05
-3.995791561760957e-05
-3.169076066224221e-05
-2.8935042343786426e-05
-3.720219729915378e-05
-3.720219729915378e-05
-3.169076066224221e-05
-2.066788738841907e-05
-1.7912169069963278e-05
-2.6179324025330647e-05
-3.169076066224221e-05
-2.6179324025330647e-05
-1.5156450751507488e-05
-9.64501411459592e-06
-1.7912169069963278e-05
-2.342360570687485e-05
-1.7912169069963278e-05
-6.889295796140132e-06
4.133577477683014e-06
1.3778591592272275e-06
-4.133577477684346e-06
-1.377859159228559e-06
1.2400732433050376e-05
1.7912169069961946e-05
1.5156450751506162e-05
6.8892957961388014e-06
4.133577477683014e-06
1.2400732433050376e-05
2.066788738841773e-05
2.066788738841773e-05
1.2400732433050376e-05
6.8892957961388014e-06
1.5156450751506162e-05
2.066788738841773e-05
2.066788738841773e-05
1.2400732433050376e-05
9.64501411459459e-06
2.3423605706873515e-05
4.82250705729756e-05
5.9247943846798756e-05
5.9247943846798756e-05
5.649222552834297e-05
5.9247943846798756e-05
7.578225375753347e-05
0.00010058371862363556
0.00013089662012664922
0.00015294236667429551
0.00016396523994811866
0.00016120952162966288
0.00015018664835583973
0.0001253851834897376
0.00010333943694209132
9.782800030517979e-05
9.782800030517979e-05
9.23165636682682e-05
7.30265354390777e-05
4.271363393606403e-05
2.066788738841773e-05
9.64501411459459e-06
1.3778591592272275e-06
-1.240073243305171e-05
-1.5156450751507488e-05
-9.64501411459592e-06
-1.377859159228559e-06
-4.133577477684346e-06
-6.889295796140132e-06
-1.240073243305171e-05
-1.240073243305171e-05
-4.133577477684346e-06
-1.377859159228559e-06
-9.64501411459592e-06
-9.64501411459592e-06
3.444647898069667e-05
0.0001556980849927513
0.00032379690241855427
0.0004863842832074457
0.0006296816357671465
0.0008032918898298613
0.0010402836652170589
0.0012166496375982292
0.0010265050736247801
0.0002686825360494386
-0.0010292607919432368
-0.0020736780346379807
-0.0022610668802929734
-0.00205438800640879
-0.0018311748226138708
-0.001585915892271306
-0.0012800311589227138
-0.0008804520027466246
-0.0004974071564812702
-0.0002466367895017936
-9.231656366826955e-05
-4.133577477684346e-06
4.546935225451981e-05
7.853797207598924e-05
0.00010058371862363556
0.00011711802853437029
0.00014467521171892812
0.000172232394903486
0.00019152242313267648
0.00019427814145113231
0.0001970338597695881
0.00020805673304341124
0.00022459104295414594
0.00024112535286488067
0.00024663678950179223
0.00024388107118333642
0.0002549039444571596
0.00027143825436789435
0.0002879725642786291
0.0002934840009155406
0.00029623971923399637
0.00031001831082627527
0.0003348197756923775
0.00035410980392156795
0.000365132677195391
0.0003733998321507585
0.0003844227054245816
0.0004092241702906837
0.00043126991683832994
0.0004450485084306089
0.000456071381704432
0.000469849973296711
0.0004946514381628131
0.0005249643396658268
0.0005580329594872961
0.0005690558327611192
0.0005966130159456772
0.0006269259174486908
0.0006517273823147929
0.0006627502555886161
0.0006655059739070718
0.000679284565499351
0.0006985745937285414
0.0007040860303654528
0.000701330312046997
0.0006903074387731741
0.0006847960021362622
0.000687551720454718
0.0006847960021362622
0.0006655059739070718
0.0006324373540856024
0.0006048801709010444
0.0005828344243533982
0.000547010086213473
0.0004974071564812689
0.0004340256351567857
0.00037064411383230263
0.0003182854657816428
0.0002741939726863501
0.00022459104295414594
0.000172232394903486
0.00013089662012664922
0.00010058371862363556
8.404940871290084e-05
6.200366216525454e-05
3.169076066224089e-05
9.64501411459459e-06
6.8892957961388014e-06
9.64501411459459e-06
1.3778591592272275e-06
-1.5156450751507488e-05
-2.6179324025330647e-05
-2.6179324025330647e-05
-1.7912169069963278e-05
-1.7912169069963278e-05
-2.6179324025330647e-05
-3.720219729915378e-05
-3.720219729915378e-05
-2.342360570687485e-05
-1.5156450751507488e-05
-2.342360570687485e-05
-3.4446478980697995e-05
-3.4446478980697995e-05
-2.6179324025330647e-05
-1.5156450751507488e-05
-1.5156450751507488e-05
-2.066788738841907e-05
-2.342360570687485e-05
-1.5156450751507488e-05
-6.889295796140132e-06
1.3778591592272275e-06
-6.889295796140132e-06
-1.240073243305171e-05
-4.133577477684346e-06
4.133577477683014e-06
6.8892957961388014e-06
4.133577477683014e-06
1.3778591592272275e-06
6.8892957961388014e-06
1.5156450751506162e-05
2.066788738841773e-05
1.5156450751506162e-05
1.5156450751506162e-05
2.8935042343785094e-05
3.169076066224089e-05
2.3423605706873515e-05
1.5156450751506162e-05
1.5156450751506162e-05
2.3423605706873515e-05
2.8935042343785094e-05
2.3423605706873515e-05
1.5156450751506162e-05
9.64501411459459e-06
2.066788738841773e-05
3.9957915617608246e-05
5.098078889143139e-05
5.098078889143139e-05
5.649222552834297e-05
7.02708171206219e-05
7.30265354390777e-05
7.853797207598924e-05
9.23165636682682e-05
0.00011987374685282605
0.00015845380331120705
0.00017774383154039756
0.00016672095826657444
0.00013640805676356078
0.00010609515526054714
0.00010058371862363556
0.00010609515526054714
0.00010333943694209132
8.129369039444505e-05
5.373650720988717e-05
3.720219729915245e-05
2.8935042343785094e-05
1.2400732433050376e-05
1.3778591592272275e-06
-6.889295796140132e-06
-1.5156450751507488e-05
-9.64501411459592e-06
-6.889295796140132e-06
-1.240073243305171e-05
-1.7912169069963278e-05
-1.7912169069963278e-05
-9.64501411459592e-06
-1.377859159228559e-06
-4.133577477684346e-06
-1.5156450751507488e-05
-2.066788738841907e-05
-9.64501411459592e-06
4.546935225451981e-05
0.00016396523994811866
0.00032104118410009855
0.00048362856488898997
0.0006517273823147929
0.000858406256198977
0.001128466651407644
0.0013048326237888143
0.0010650851300831607
0.0002218353246356902
-0.0011394895246814685
-0.0020984794995040825
-0.002203196795605402
-0.001974472175173572
-0.001748503273060197
-0.0015142672159914558
-0.001222161074235142
-0.0008418719462882435
-0.00047260569161516804
-0.00023285819790951464
4.133577477683014e-06
3.9957915617608246e-05
5.9247943846798756e-05
8.404940871290084e-05
0.00011711802853437029
0.00015294236667429551
0.000172232394903486
0.00017774383154039756
0.00018049954985885336
0.0001970338597695881
0.0002135681696803228
0.00022459104295414594
0.00022734676127260172
0.00023010247959105753
0.00024112535286488067
0.00026041538109407124
0.00027143825436789435
0.0002741939726863501
0.00027970540932326175
0.0002934840009155406
0.0003127740291447311
0.0003348197756923775
0.0003430869306477448
0.0003485983672846564
0.000365132677195391
0.0003954455786984048
0.00041473560692759526
0.00042300276188296266
0.00043126991683832994
0.0004478042267490647
0.00047536140993362247
0.0005056743114366363
0.0005249643396658268
0.0005332314946211942
0.0005497658045319286
0.0005828344243533982
0.0006103916075379561
0.0006296816357671465
0.0006407045090409697
0.0006517273823147929
0.0006710174105439835
0.0006930631570916297
0.0006985745937285414
0.0006958188754100854
0.0006903074387731741
0.0006903074387731741
0.0006958188754100854
0.0006930631570916297
0.0006737731288624392
0.0006462159456778814
0.0006296816357671465
0.0006131473258564118
0.0005773229877164866
0.0005277200579842825
0.0004726056916151668
0.00041749132524605104
0.00036788839551384685
0.000315529747463187
0.0002576596627756154
0.00020254529640649968
0.00016120952162966288
0.00013089662012664922
0.00010609515526054714
7.853797207598924e-05
4.82250705729756e-05
2.6179324025329308e-05
2.066788738841773e-05
1.5156450751506162e-05
-4.133577477684346e-06
-1.5156450751507488e-05
-1.5156450751507488e-05
-9.64501411459592e-06
-9.64501411459592e-06
-2.342360570687485e-05
-2.8935042343786426e-05
-2.342360570687485e-05
-1.5156450751507488e-05
-9.64501411459592e-06
-1.5156450751507488e-05
-2.342360570687485e-05
-2.342360570687485e-05
-1.240073243305171e-05
-6.889295796140132e-06
-9.64501411459592e-06
-1.240073243305171e-05
-9.64501411459592e-06
1.3778591592272275e-06
1.2400732433050376e-05
1.2400732433050376e-05
4.133577477683014e-06
4.133577477683014e-06
1.2400732433050376e-05
2.3423605706873515e-05
2.3423605706873515e-05
1.2400732433050376e-05
1.2400732433050376e-05
2.3423605706873515e-05
3.444647898069667e-05
3.444647898069667e-05
2.6179324025329308e-05
2.066788738841773e-05
2.8935042343785094e-05
3.9957915617608246e-05
4.271363393606403e-05
3.444647898069667e-05
2.6179324025329308e-05
3.169076066224089e-05
3.9957915617608246e-05
4.271363393606403e-05
3.169076066224089e-05
2.3423605706873515e-05
2.6179324025329308e-05
3.444647898069667e-05
4.271363393606403e-05
4.82250705729756e-05
5.373650720988717e-05
5.649222552834297e-05
7.02708171206219e-05
8.129369039444505e-05
7.30265354390777e-05
7.30265354390777e-05
9.782800030517979e-05
0.00014467521171892812
0.00018049954985885336
0.0001832552681773092
0.0001556980849927513
0.0001253851834897376
0.00011160659189745871
0.00011711802853437029
0.00011160659189745871
9.782800030517979e-05
7.30265354390777e-05
5.373650720988717e-05
4.82250705729756e-05
3.444647898069667e-05
1.2400732433050376e-05
-1.377859159228559e-06
1.3778591592272275e-06
4.133577477683014e-06
-1.377859159228559e-06
-9.64501411459592e-06
-9.64501411459592e-06
-1.377859159228559e-06
6.8892957961388014e-06
1.3778591592272275e-06
-9.64501411459592e-06
-1.5156450751507488e-05
-4.133577477684346e-06
1.7912169069961946e-05
8.68051270313566e-05
0.00021632388799877858
0.0003816669871061258
0.0005580329594872961
0.0007399103685053779
0.000985169298847943
0.0012745197222858006
0.0013819927367055766
0.0009521006790264736
-0.00014467521171892948
-0.0015390686808575578
-0.0021728838941023885
-0.0020791894712748915
-0.0018339305409323266
-0.0016189845120927755
-0.0013819927367055777
-0.0010871308766308087
-0.0007040860303654542
-0.00037615555046921565
-0.00017223239490348733
-5.3736507209888505e-05
-4.133577477684346e-06
2.066788738841773e-05
4.82250705729756e-05
8.956084534981241e-05
0.00011987374685282605
0.00013365233844510492
0.00013916377508201656
0.00014743093003738393
0.00016672095826657444
0.00018601098649576498
0.00019152242313267648
0.00018876670481422076
0.00019427814145113231
0.000210812451361867
0.00023010247959105753
0.00023561391622796914
0.00023285819790951333
0.00024112535286488067
0.0002576596627756154
0.00027970540932326175
0.0002934840009155406
0.0002989954375524522
0.0003072625925078196
0.00032655262073701005
0.00035135408560311223
0.000365132677195391
0.00037064411383230263
0.0003816669871061258
0.00040371273365377215
0.0004340256351567857
0.0004588271000228878
0.0004726056916151668
0.0004891400015259016
0.0005166971847104594
0.000547010086213473
0.000585590142671854
0.000599368734264133
0.0006159030441748677
0.0006434602273594254
0.0006682616922255276
0.000679284565499351
0.000676528847180895
0.0006737731288624392
0.000676528847180895
0.0006847960021362622
0.000676528847180895
0.0006572388189517045
0.000637948790722514
0.0006269259174486908
0.0006159030441748677
0.000585590142671854
0.0005359872129396498
0.0004781171282520784
0.00042575848020141833
0.00037615555046921414
0.000315529747463187
0.0002493925078202481
0.0001832552681773092
0.00013916377508201656
0.00010333943694209132
7.30265354390777e-05
3.9957915617608246e-05
1.3778591592272275e-06
-2.342360570687485e-05
-3.169076066224221e-05
-3.720219729915378e-05
-5.098078889143272e-05
-7.027081712062322e-05
-7.85379720759906e-05
-7.57822537575348e-05
-7.302653543907902e-05
-8.129369039444639e-05
-9.231656366826955e-05
-9.78280003051811e-05
-9.78280003051811e-05
-9.231656366826955e-05
-8.680512703135793e-05
-8.956084534981374e-05
-9.507228198672531e-05
-8.956084534981374e-05
-8.404940871290214e-05
-8.129369039444639e-05
-8.956084534981374e-05
-9.231656366826955e-05
-8.956084534981374e-05
-7.302653543907902e-05
-6.475938048371164e-05
-6.751509880216745e-05
-7.302653543907902e-05
-6.751509880216745e-05
-5.3736507209888505e-05
-5.098078889143272e-05
-5.3736507209888505e-05
-6.200366216525588e-05
-6.200366216525588e-05
-5.098078889143272e-05
-4.2713633936065354e-05
-4.2713633936065354e-05
-4.5469352254521147e-05
-4.8225070572976926e-05
-4.2713633936065354e-05
-3.169076066224221e-05
-3.169076066224221e-05
-4.5469352254521147e-05
-3.720219729915378e-05
-3.4446478980697995e-05
-3.4446478980697995e-05
-3.4446478980697995e-05
-3.4446478980697995e-05
-1.7912169069963278e-05
-1.377859159228559e-06
6.8892957961388014e-06
4.133577477683014e-06
-1.377859159228559e-06
4.133577477683014e-06
3.720219729915245e-05
7.30265354390777e-05
9.507228198672396e-05
0.00010058371862363556
9.507228198672396e-05
8.68051270313566e-05
6.751509880216611e-05
5.098078889143139e-05
3.9957915617608246e-05
3.169076066224089e-05
2.8935042343785094e-05
1.7912169069961946e-05
-6.889295796140132e-06
-3.4446478980697995e-05
-5.098078889143272e-05
-5.3736507209888505e-05
-5.098078889143272e-05
-5.6492225528344285e-05
-7.027081712062322e-05
-7.302653543907902e-05
-6.751509880216745e-05
-5.6492225528344285e-05
-5.6492225528344285e-05
-6.475938048371164e-05
-6.751509880216745e-05
-6.475938048371164e-05
-6.200366216525588e-05
-6.475938048371164e-05
-6.475938048371164e-05
-2.8935042343786426e-05
8.404940871290084e-05
0.00026041538109407124
0.0004340256351567857
0.0005828344243533982
0.0007564446784161128
0.000998947890440222
0.0012194053559166852
0.0010705965667200726
0.0002824611276417174
-0.0010981537499046318
-0.0022335096971084155
-0.0024401885709926
-0.0022087082322423137
-0.0019551821469443813
-0.0017292132448310067
-0.0014894657511253533
-0.0011808252994583053
-0.0007812461432822162
-0.00044504850843061025
-0.0002549039444571609
-0.0001226294651712832
-3.995791561760957e-05
9.64501411459459e-06
4.546935225451981e-05
6.475938048371032e-05
8.68051270313566e-05
0.00013640805676356078
0.0001556980849927513
0.00016396523994811866
0.00016672095826657444
0.00017774383154039756
0.00019978957808804387
0.00021632388799877858
0.0002190796063172344
0.0002218353246356902
0.00023561391622796914
0.0002576596627756154
0.0002741939726863501
0.0002824611276417174
0.0002879725642786291
0.000301751155870908
0.00032379690241855427
0.00035135408560311223
0.00037064411383230263
0.0003733998321507585
0.0003844227054245816
0.00041197988860913943
0.0004422927901121532
0.0004670942549782553
0.0004808728465705341
0.0004974071564812689
0.0005277200579842825
0.000560788677805752
0.000585590142671854
0.0006103916075379561
0.0006296816357671465
0.0006599945372701603
0.0006930631570916297
0.000717864621957732
0.0007316432135500107
0.0007343989318684667
0.0007481775234607456
0.0007647118333714802
0.0007702232700083917
0.0007619561150530243
0.0007454218051422897
0.0007343989318684667
0.0007288874952315547
0.000717864621957732
0.0006903074387731741
0.0006462159456778814
0.0005966130159456772
0.0005497658045319286
0.0005001628747997245
0.00042851419851987416
0.0003485983672846564
0.0002741939726863501
0.0002190796063172344
0.000172232394903486
0.0001253851834897376
7.02708171206219e-05
2.3423605706873515e-05
1.3778591592272275e-06
-1.5156450751507488e-05
-2.8935042343786426e-05
-5.3736507209888505e-05
-7.302653543907902e-05
-7.85379720759906e-05
-7.57822537575348e-05
-7.85379720759906e-05
-8.956084534981374e-05
-0.00010058371862363688
-0.00010609515526054846
-0.00010333943694209268
-9.78280003051811e-05
-0.00011436231021591582
-0.0001171180285343716
-0.00010885087357900426
-9.78280003051811e-05
-9.78280003051811e-05
-0.00010885087357900426
-0.00011160659189746003
-9.78280003051811e-05
-8.680512703135793e-05
-7.85379720759906e-05
-8.956084534981374e-05
-9.507228198672531e-05
-8.129369039444639e-05
-6.751509880216745e-05
-6.475938048371164e-05
-6.751509880216745e-05
-7.027081712062322e-05
-6.200366216525588e-05
-4.5469352254521147e-05
-3.720219729915378e-05
-3.995791561760957e-05
-4.5469352254521147e-05
-4.5469352254521147e-05
-3.4446478980697995e-05
-2.342360570687485e-05
-2.6179324025330647e-05
-3.4446478980697995e-05
-3.4446478980697995e-05
-2.6179324025330647e-05
-2.066788738841907e-05
-2.6179324025330647e-05
-2.8935042343786426e-05
-2.066788738841907e-05
-1.377859159228559e-06
1.2400732433050376e-05
1.2400732433050376e-05
9.64501411459459e-06
-1.377859159228559e-06
9.64501411459459e-06
3.9957915617608246e-05
7.578225375753347e-05
0.00010058371862363556
0.00010333943694209132
0.00010333943694209132
9.23165636682682e-05
7.02708171206219e-05
5.373650720988717e-05
4.271363393606403e-05
3.720219729915245e-05
3.720219729915245e-05
2.6179324025329308e-05
1.3778591592272275e-06
-2.342360570687485e-05
-3.995791561760957e-05
-4.8225070572976926e-05
-5.098078889143272e-05
-6.475938048371164e-05
-7.302653543907902e-05
-7.302653543907902e-05
-6.475938048371164e-05
-5.3736507209888505e-05
-5.9247943846800084e-05
-6.751509880216745e-05
-7.302653543907902e-05
-6.475938048371164e-05
-5.9247943846800084e-05
-6.475938048371164e-05
-7.027081712062322e-05
0.00011160659189745871
0.0002989954375524522
0.0004726056916151668
0.0006269259174486908
0.0007895132982375822
0.0010044593270771337
0.0011450009613183788
0.0008446276646066979
-4.8225070572976926e-05
-0.001409549919890136
-0.0024208985427634083
-0.0025559287403677435
-0.002307914091706722
-0.0020433651331349667
-0.0018008619211108575
-0.0015335572442206462
-0.001186336736095217
-0.0007674675516899373
-0.0004312699168383313
-0.00023561391622797047
-0.00010333943694209268
-2.6179324025330647e-05
1.7912169069961946e-05
5.098078889143139e-05
7.02708171206219e-05
9.507228198672396e-05
0.00012262946517128183
0.00014467521171892812
0.00015845380331120705
0.00016396523994811866
0.0001694766765850302
0.00018601098649576498
0.00020254529640649968
0.00021632388799877858
0.00021632388799877858
0.0002190796063172344
0.00023561391622796914
0.0002576596627756154
0.0002741939726863501
0.00027970540932326175
0.0002824611276417174
0.0002989954375524522
0.00032379690241855427
0.0003430869306477448
0.00035135408560311223
0.0003623769588769353
0.0003816669871061258
0.00041473560692759526
0.0004422927901121532
0.000456071381704432
0.0004726056916151668
0.0005001628747997245
0.0005304757763027383
0.0005635443961242077
0.0005883458609903097
0.0006076358892195001
0.0006269259174486908
0.0006599945372701603
0.0006958188754100854
0.0007123531853208202
0.0007233760585946433
0.0007343989318684667
0.0007454218051422897
0.0007647118333714802
0.0007702232700083917
0.0007564446784161128
0.0007454218051422897
0.0007399103685053779
0.0007123531853208202
0.0006737731288624392
0.0006324373540856024
0.000585590142671854
0.0005414986495765614
0.0004808728465705341
0.00040371273365377215
0.0003348197756923775
0.00027143825436789435
0.00021632388799877858
0.0001694766765850302
0.00011711802853437029
6.751509880216611e-05
3.169076066224089e-05
1.2400732433050376e-05
-1.377859159228559e-06
-2.066788738841907e-05
-4.5469352254521147e-05
-5.9247943846800084e-05
-5.6492225528344285e-05
-5.6492225528344285e-05
-6.475938048371164e-05
-7.85379720759906e-05
-8.680512703135793e-05
-8.680512703135793e-05
-8.129369039444639e-05
-8.404940871290214e-05
-9.78280003051811e-05
-0.00010333943694209268
-9.507228198672531e-05
-8.404940871290214e-05
-7.85379720759906e-05
-8.956084534981374e-05
-0.00010058371862363688
-9.507228198672531e-05
-8.129369039444639e-05
-7.57822537575348e-05
-8.129369039444639e-05
-8.404940871290214e-05
-8.129369039444639e-05
-6.751509880216745e-05
-5.9247943846800084e-05
-5.9247943846800084e-05
-6.200366216525588e-05
-5.9247943846800084e-05
-4.8225070572976926e-05
-3.4446478980697995e-05
-3.4446478980697995e-05
-3.720219729915378e-05
-3.720219729915378e-05
-2.6179324025330647e-05
-1.5156450751507488e-05
-1.7912169069963278e-05
-2.066788738841907e-05
-2.6179324025330647e-05
-2.342360570687485e-05
-9.64501411459592e-06
-4.133577477684346e-06
-9.64501411459592e-06
-1.377859159228559e-06
