-0.00016947667658503157
-0.0001612095216296642
-0.00016672095826657574
-0.0001777438315403989
-0.00018049954985885472
-0.00017498811322194308
-0.00017223239490348733
-0.0001777438315403989
-0.00018601098649576628
-0.00018601098649576628
-0.00018049954985885472
-0.0001777438315403989
-0.00017498811322194308
-0.00018049954985885472
-0.00018049954985885472
-0.00017498811322194308
-0.00016396523994811996
-0.00016396523994811996
-0.00017498811322194308
-0.00018325526817731047
-0.00018049954985885472
-0.00016947667658503157
-0.0001612095216296642
-0.0001612095216296642
-0.00016672095826657574
-0.00016396523994811996
-0.00015294236667429682
-0.00014743093003738526
-0.00015294236667429682
-0.00016396523994811996
-0.00016672095826657574
-0.0001612095216296642
-0.0001584538033112084
-0.00016396523994811996
-0.00017223239490348733
-0.00017223239490348733
-0.00016672095826657574
-0.0001612095216296642
-0.00017223239490348733
-0.00017498811322194308
-0.00017498811322194308
-0.00016947667658503157
-0.00016672095826657574
-0.00017498811322194308
-0.00018049954985885472
-0.0001777438315403989
-0.00017223239490348733
-0.00017223239490348733
-0.0001777438315403989
-0.00018325526817731047
-0.00018325526817731047
-0.00018325526817731047
-0.00018049954985885472
-0.00018325526817731047
-0.00018876670481422206
-0.00019152242313267784
-0.00019152242313267784
-0.00018601098649576628
-0.00018876670481422206
-0.00019427814145113364
-0.00020254529640650095
-0.0001997895780880452
-0.00018876670481422206
-0.00018876670481422206
-0.00019703385976958942
-0.00020254529640650095
-0.0001997895780880452
-0.00018601098649576628
-0.00017223239490348733
-0.00016947667658503157
-0.00016947667658503157
-0.00016396523994811996
-0.0001584538033112084
-0.0001364080567635621
-0.00011160659189746003
-0.00010885087357900426
-0.00010333943694209268
-8.956084534981374e-05
-9.231656366826955e-05
-0.0001171180285343716
-0.00014743093003738526
-0.00015569808499275262
-0.000150186648355841
-0.0001391637750820179
-0.0001364080567635621
-0.00015294236667429682
-0.00016947667658503157
-0.00018325526817731047
-0.00019427814145113364
-0.0002080567330434125
-0.0002218353246356915
-0.00022459104295414727
-0.0002218353246356915
-0.00021632388799877996
-0.00021356816968032413
-0.00021632388799877996
-0.0002218353246356915
-0.0002218353246356915
-0.00021632388799877996
-0.00021356816968032413
-0.0002218353246356915
-0.00022734676127260308
-0.0002190796063172357
-0.0001612095216296642
-4.2713633936065354e-05
0.00011436231021591448
0.0004367813534752416
0.0006407045090409697
0.0009355663691157388
0.0012138939192797731
0.0011532681162737465
0.000508430029755092
-0.0007812461432822162
-0.00200202935835813
-0.0023189369649805444
-0.0021425709925993745
-0.0019441592736705586
-0.0017705490196078433
-0.001572137300679027
-0.0013075883421072713
-0.000979657862211033
-0.0006820402838178078
-0.0004918957198443586
-0.0003513540856031135
-0.00027694969100480727
-0.00024112535286488197
-0.00021632388799877996
-0.00018601098649576628
-0.00014743093003738526
-0.00011436231021591582
-0.00010058371862363688
-9.231656366826955e-05
-7.85379720759906e-05
-6.200366216525588e-05
-4.2713633936065354e-05
-3.4446478980697995e-05
-2.8935042343786426e-05
-2.066788738841907e-05
-6.889295796140132e-06
6.8892957961388014e-06
1.7912169069961946e-05
1.7912169069961946e-05
2.066788738841773e-05
2.8935042343785094e-05
4.546935225451981e-05
5.373650720988717e-05
5.649222552834297e-05
6.200366216525454e-05
7.853797207598924e-05
9.782800030517979e-05
0.00011160659189745871
0.00011987374685282605
0.0001253851834897376
0.00013916377508201656
0.00015294236667429551
0.0001694766765850302
0.00018049954985885336
0.00019152242313267648
0.00020530101472495543
0.00023010247959105753
0.0002549039444571596
0.0002686825360494386
0.0002769496910048059
0.00029623971923399637
0.00032379690241855427
0.0003485983672846564
0.00036788839551384685
0.0003816669871061258
0.000392689860379949
0.00041749132524605104
0.0004422927901121532
0.0004588271000228878
0.0004726056916151668
0.0004808728465705341
0.0004974071564812689
0.0005029185931181804
0.0004946514381628131
0.00048362856488898997
0.0004781171282520784
0.00047536140993362247
0.0004670942549782553
0.0004478042267490647
0.00042024704356450677
0.00038993414206149314
0.00035410980392156795
0.00031001831082627527
0.0002549039444571596
0.00018601098649576498
0.00012262946517128183
6.751509880216611e-05
1.7912169069961946e-05
-2.6179324025330647e-05
-7.57822537575348e-05
-0.00011436231021591582
-0.0001391637750820179
-0.00015294236667429682
-0.00016672095826657574
-0.00019152242313267784
-0.00021356816968032413
-0.0002190796063172357
-0.0002218353246356915
-0.00022459104295414727
-0.00023285819790951464
-0.00024388107118333775
-0.00024939250782024937
-0.0002466367895017936
-0.0002466367895017936
-0.0002521482261387052
-0.0002631710994125282
-0.00026592681773098404
-0.0002631710994125282
-0.00025765966277561676
-0.0002604153810940725
-0.00027143825436789566
-0.00027419397268635144
-0.00026592681773098404
-0.0002521482261387052
-0.00024939250782024937
-0.0002549039444571609
-0.0002631710994125282
-0.0002604153810940725
-0.0002521482261387052
-0.0002466367895017936
-0.00024388107118333775
-0.00024388107118333775
-0.0002466367895017936
-0.00023836963454642628
-0.00023010247959105888
-0.00023285819790951464
-0.00023836963454642628
-0.00024388107118333775
-0.00023561391622797047
-0.00023010247959105888
-0.00023010247959105888
-0.00023285819790951464
-0.00023561391622797047
-0.00022734676127260308
-0.0002218353246356915
-0.00022459104295414727
-0.00023285819790951464
-0.00023561391622797047
-0.00023285819790951464
-0.00022734676127260308
-0.00023285819790951464
-0.00024112535286488197
-0.00024388107118333775
-0.00024112535286488197
-0.00023836963454642628
-0.00024388107118333775
-0.0002549039444571609
-0.00025765966277561676
-0.0002466367895017936
-0.0002466367895017936
-0.00024939250782024937
-0.0002549039444571609
-0.0002549039444571609
-0.0002466367895017936
-0.00024112535286488197
-0.0002466367895017936
-0.0002549039444571609
-0.00025765966277561676
-0.00024939250782024937
-0.00024388107118333775
-0.0002466367895017936
-0.00024939250782024937
-0.00023836963454642628
-0.00022459104295414727
-0.0002108124513618684
-0.00019427814145113364
-0.00019703385976958942
-0.00019703385976958942
-0.00017498811322194308
-0.000150186648355841
-0.0001364080567635621
-0.0001364080567635621
-0.00014467521171892948
-0.00015569808499275262
-0.00016396523994811996
-0.00017223239490348733
-0.00018049954985885472
-0.00018876670481422206
-0.00018876670481422206
-0.00018325526817731047
-0.00018601098649576628
-0.0002080567330434125
-0.00023010247959105888
-0.00024388107118333775
-0.0002521482261387052
-0.0002549039444571609
-0.00025765966277561676
-0.00025765966277561676
-0.0002631710994125282
-0.0002604153810940725
-0.00024939250782024937
-0.00024939250782024937
-0.00025765966277561676
-0.0002604153810940725
-0.00025765966277561676
-0.0002549039444571609
-0.0002549039444571609
-0.0002466367895017936
-0.00018601098649576628
-5.3736507209888505e-05
0.00011987374685282605
0.00029623971923399637
0.0004615828183413437
0.0006462159456778814
0.0008776962844281674
0.001007215045395589
0.000701330312046997
-0.00017223239490348733
-0.0024677457541771577
-0.0025752187685969324
-0.0023299598382543686
-0.0020984794995040825
-0.0019028234988937211
-0.00168787747005417
-0.001404038483253224
-0.0010457951018539718
-0.000731643213550012
-0.0005277200579842838
-0.0003871784237430386
-0.00030726259250782084
-0.00026592681773098404
-0.00022459104295414727
-0.00019427814145113364
-0.00016947667658503157
-0.00014191949340047367
-0.00011436231021591582
-9.507228198672531e-05
-8.404940871290214e-05
-7.85379720759906e-05
-7.027081712062322e-05
-5.098078889143272e-05
-3.169076066224221e-05
-2.342360570687485e-05
-2.342360570687485e-05
-1.7912169069963278e-05
-4.133577477684346e-06
1.5156450751506162e-05
2.3423605706873515e-05
2.6179324025329308e-05
3.169076066224089e-05
4.82250705729756e-05
5.649222552834297e-05
6.475938048371032e-05
7.578225375753347e-05
8.129369039444505e-05
9.23165636682682e-05
0.00011160659189745871
0.00013089662012664922
0.00013916377508201656
0.00014743093003738393
0.00016120952162966288
0.00018601098649576498
0.00020805673304341124
0.0002190796063172344
0.00023010247959105753
0.00024663678950179223
0.0002769496910048059
0.00030450687418936376
0.00032379690241855427
0.000340331212329289
0.00035410980392156795
0.0003844227054245816
0.00041749132524605104
0.0004395370717936973
0.000456071381704432
0.0004726056916151668
0.0004863842832074457
0.000508430029755092
0.0005249643396658268
0.0005277200579842825
0.0005277200579842825
0.0005304757763027383
0.0005359872129396498
0.0005387429312581057
0.0005304757763027383
0.0005166971847104594
0.0004863842832074457
0.0004643385366597993
0.00042024704356450677
0.0003623769588769353
0.000301751155870908
0.00024388107118333642
0.00018601098649576498
0.00011987374685282605
5.373650720988717e-05
-1.377859159228559e-06
-3.995791561760957e-05
-7.57822537575348e-05
-0.00010885087357900426
-0.0001391637750820179
-0.00016672095826657574
-0.00018049954985885472
-0.00018876670481422206
-0.00019703385976958942
-0.0002080567330434125
-0.0002190796063172357
-0.0002218353246356915
-0.0002218353246356915
-0.00021632388799877996
-0.00022459104295414727
-0.00023285819790951464
-0.00023561391622797047
-0.00023561391622797047
-0.00023285819790951464
-0.00023836963454642628
-0.0002466367895017936
-0.0002466367895017936
-0.00023836963454642628
-0.00023561391622797047
-0.00023836963454642628
-0.00024112535286488197
-0.00024112535286488197
-0.00023285819790951464
-0.00022459104295414727
-0.00022459104295414727
-0.00023010247959105888
-0.00023010247959105888
-0.00022734676127260308
-0.00021632388799877996
-0.0002108124513618684
-0.00021356816968032413
-0.0002190796063172357
-0.00021632388799877996
-0.0002080567330434125
-0.0001997895780880452
-0.00020254529640650095
-0.00020530101472495681
-0.00020530101472495681
-0.0001997895780880452
-0.00019427814145113364
-0.00019427814145113364
-0.00020254529640650095
-0.00020254529640650095
-0.0001997895780880452
-0.0001997895780880452
-0.00020254529640650095
-0.00020530101472495681
-0.0002080567330434125
-0.00020530101472495681
-0.0001997895780880452
-0.0001997895780880452
-0.00020530101472495681
-0.0002108124513618684
-0.0002108124513618684
-0.0002080567330434125
-0.00021356816968032413
-0.00021632388799877996
-0.00021356816968032413
-0.0002108124513618684
-0.00020530101472495681
-0.00021356816968032413
-0.0002218353246356915
-0.0002190796063172357
-0.0002190796063172357
-0.00021632388799877996
-0.00021632388799877996
-0.0002190796063172357
-0.00022459104295414727
-0.0002218353246356915
-0.00021356816968032413
-0.00021632388799877996
-0.00022459104295414727
-0.0002218353246356915
-0.00020254529640650095
-0.00018601098649576628
-0.00017498811322194308
-0.00017223239490348733
-0.00017498811322194308
-0.00015569808499275262
-0.00013089662012665053
-0.0001198737468528274
-0.0001198737468528274
-0.0001198737468528274
-0.0001226294651712832
-0.00013089662012665053
-0.00014743093003738526
-0.0001612095216296642
-0.00016672095826657574
-0.00016396523994811996
-0.00015569808499275262
-0.00015294236667429682
-0.00016672095826657574
-0.00018876670481422206
-0.0002108124513618684
-0.0002190796063172357
-0.00021632388799877996
-0.00021632388799877996
-0.00022734676127260308
-0.00023285819790951464
-0.00022734676127260308
-0.0002190796063172357
-0.0002190796063172357
-0.00022459104295414727
-0.00022734676127260308
-0.00023010247959105888
-0.00022459104295414727
-0.00022459104295414727
-0.00022734676127260308
-0.00019703385976958942
-8.956084534981374e-05
7.30265354390777e-05
0.00025214822613870384
0.00042024704356450677
0.0005911015793087656
0.0008253376363775078
0.0010678408484016168
0.0010678408484016168
0.0005359872129396498
-0.0005580329594872974
-0.0018394419775692383
-0.0023933413595788513
-0.0022913797817959874
-0.0018890449073014426
-0.00168787747005417
-0.001417817074845503
-0.0010457951018539718
-0.0007068417486839102
-0.0004974071564812702
-0.00036237695887693665
-0.00029072828259708617
-0.0002466367895017936
-0.00021632388799877996
-0.00018876670481422206
-0.0001612095216296642
-0.0001336523384451063
-0.00010609515526054846
-8.956084534981374e-05
-7.85379720759906e-05
-7.302653543907902e-05
-6.475938048371164e-05
-4.8225070572976926e-05
-3.4446478980697995e-05
-2.8935042343786426e-05
-2.8935042343786426e-05
-2.6179324025330647e-05
-1.5156450751507488e-05
1.3778591592272275e-06
6.8892957961388014e-06
9.64501411459459e-06
1.2400732433050376e-05
2.066788738841773e-05
3.444647898069667e-05
4.82250705729756e-05
5.098078889143139e-05
5.649222552834297e-05
7.02708171206219e-05
8.404940871290084e-05
9.782800030517979e-05
0.00010609515526054714
0.00011436231021591448
0.0001253851834897376
0.00014743093003738393
0.00016396523994811866
0.000172232394903486
0.00018049954985885336
0.00019978957808804387
0.0002218353246356902
0.00024112535286488067
0.0002576596627756154
0.0002686825360494386
0.0002879725642786291
0.0003127740291447311
0.0003348197756923775
0.00035410980392156795
0.000365132677195391
0.00037615555046921414
0.0003954455786984048
0.00041749132524605104
0.00042851419851987416
0.0004340256351567857
0.0004340256351567857
0.0004367813534752416
0.0004422927901121532
0.0004450485084306089
0.0004395370717936973
0.00042575848020141833
0.00041749132524605104
0.00041197988860913943
0.0003982012970168605
0.00037615555046921414
0.00029623971923399637
0.0002576596627756154
0.0002135681696803228
0.0001556980849927513
9.507228198672396e-05
4.546935225451981e-05
6.8892957961388014e-06
-2.6179324025330647e-05
-6.200366216525588e-05
-9.507228198672531e-05
-0.0001198737468528274
-0.0001364080567635621
-0.00014467521171892948
-0.0001584538033112084
-0.0001777438315403989
-0.00018601098649576628
-0.00018325526817731047
-0.00018325526817731047
-0.00018876670481422206
-0.00019703385976958942
-0.00020530101472495681
-0.00020530101472495681
-0.0001997895780880452
-0.0001997895780880452
-0.0002080567330434125
-0.00021356816968032413
-0.00021632388799877996
-0.0002108124513618684
-0.0002080567330434125
-0.00021356816968032413
-0.0002190796063172357
-0.0002190796063172357
-0.00021632388799877996
-0.0002080567330434125
-0.00020530101472495681
-0.0002108124513618684
-0.00021632388799877996
-0.0002108124513618684
-0.00020254529640650095
-0.0001997895780880452
-0.00020530101472495681
-0.0002108124513618684
-0.00020254529640650095
-0.00019152242313267784
-0.00018601098649576628
-0.00019152242313267784
-0.00019703385976958942
-0.00019427814145113364
-0.00018601098649576628
-0.00018049954985885472
-0.00018325526817731047
-0.00018876670481422206
-0.00018601098649576628
-0.00018049954985885472
-0.00016947667658503157
-0.00016947667658503157
-0.0001777438315403989
-0.00018049954985885472
-0.00018049954985885472
-0.00017498811322194308
-0.0001777438315403989
-0.00018325526817731047
-0.00018601098649576628
-0.00018601098649576628
-0.0001777438315403989
-0.0001777438315403989
-0.00018601098649576628
-0.00018601098649576628
-0.00018325526817731047
-0.00018049954985885472
-0.00018325526817731047
-0.00018876670481422206
-0.00019152242313267784
-0.00018601098649576628
-0.0001777438315403989
-0.00018601098649576628
-0.00019427814145113364
-0.00019427814145113364
-0.00018601098649576628
-0.00018049954985885472
-0.00018325526817731047
-0.00019152242313267784
-0.00019703385976958942
-0.00018876670481422206
-0.00018601098649576628
-0.00018601098649576628
-0.00018876670481422206
-0.00019152242313267784
-0.00019152242313267784
-0.00018601098649576628
-0.00018049954985885472
-0.00018601098649576628
-0.00019427814145113364
-0.00019427814145113364
-0.00019152242313267784
-0.00018049954985885472
-0.00016947667658503157
-0.00016947667658503157
-0.0001612095216296642
-0.000150186648355841
-0.0001364080567635621
-0.00011436231021591582
-0.00010609515526054846
-0.00010058371862363688
-8.680512703135793e-05
-7.85379720759906e-05
-8.956084534981374e-05
-0.0001171180285343716
-0.0001391637750820179
-0.0001391637750820179
-0.0001336523384451063
-0.00012814090180819475
-0.00012814090180819475
-0.0001391637750820179
-0.00015294236667429682
-0.0001584538033112084
-0.00018049954985885472
-0.0001997895780880452
-0.00020254529640650095
-0.00019703385976958942
-0.00019152242313267784
-0.00019152242313267784
-0.00019427814145113364
-0.00019427814145113364
-0.00019427814145113364
-0.00018876670481422206
-0.00018049954985885472
-0.00018601098649576628
-0.00019703385976958942
-0.0001997895780880452
-0.00018325526817731047
-0.0001171180285343716
1.3778591592272275e-06
0.00015294236667429551
0.00032379690241855427
0.0004891400015259016
0.0007095974670023644
0.0012690082856488892
0.0011477566796368347
0.0004340256351567857
-0.0008859634393835361
-0.0019827393301289392
-0.0022004410772869464
-0.002026830823224232
-0.0018477091325246056
-0.0016575645685511565
-0.0014260842298008704
-0.0011091766231784547
-0.0007564446784161143
-0.0005194529030289164
-0.00036237695887693665
-0.00027143825436789566
-0.00023836963454642628
-0.00021356816968032413
-0.00018325526817731047
-0.000150186648355841
-0.0001226294651712832
-0.00010333943694209268
-9.231656366826955e-05
-7.85379720759906e-05
-5.9247943846800084e-05
-4.2713633936065354e-05
-3.720219729915378e-05
-3.4446478980697995e-05
-3.169076066224221e-05
-2.066788738841907e-05
-6.889295796140132e-06
-1.377859159228559e-06
-4.133577477684346e-06
-1.377859159228559e-06
1.2400732433050376e-05
2.8935042343785094e-05
3.9957915617608246e-05
4.271363393606403e-05
4.271363393606403e-05
5.373650720988717e-05
6.475938048371032e-05
7.853797207598924e-05
8.68051270313566e-05
8.956084534981241e-05
9.507228198672396e-05
0.00011436231021591448
0.00013089662012664922
0.00014191949340047234
0.00014743093003738393
0.00015845380331120705
0.00018049954985885336
0.0001970338597695881
0.000210812451361867
0.0002218353246356902
0.0002383696345464249
0.0002549039444571596
0.0002741939726863501
0.0002934840009155406
0.00030450687418936376
0.0003127740291447311
0.00033206405737392166
0.0003568655222400236
0.00037615555046921414
0.0003816669871061258
0.00038717842374303736
0.0003982012970168605
0.00041749132524605104
0.00042300276188296266
0.00042024704356450677
0.00041473560692759526
0.00042024704356450677
0.00042024704356450677
0.00041197988860913943
0.000392689860379949
0.0003733998321507585
0.0003568655222400236
0.000340331212329289
0.0003072625925078196
0.0002576596627756154
0.00020530101472495543
0.00015294236667429551
0.00011160659189745871
6.751509880216611e-05
1.7912169069961946e-05
-2.342360570687485e-05
-5.098078889143272e-05
-7.302653543907902e-05
-8.956084534981374e-05
-0.00011160659189746003
-0.00013089662012665053
-0.0001391637750820179
-0.00014191949340047367
-0.00014191949340047367
-0.00015294236667429682
-0.00016396523994811996
-0.00016947667658503157
-0.00016672095826657574
-0.00016396523994811996
-0.00016672095826657574
-0.00017498811322194308
-0.00018049954985885472
-0.0001777438315403989
-0.00017498811322194308
-0.00017223239490348733
-0.00018325526817731047
-0.00018876670481422206
-0.00018876670481422206
-0.00018049954985885472
-0.00017498811322194308
-0.00018049954985885472
-0.00018601098649576628
-0.00018049954985885472
-0.00017223239490348733
-0.00016947667658503157
-0.00016947667658503157
-0.00017223239490348733
-0.00017223239490348733
-0.00016396523994811996
-0.00015569808499275262
-0.0001584538033112084
-0.00016396523994811996
-0.00016396523994811996
-0.0001584538033112084
-0.000150186648355841
-0.00015294236667429682
-0.00016396523994811996
-0.00016672095826657574
-0.0001584538033112084
-0.00014743093003738526
-0.00014467521171892948
-0.00015294236667429682
-0.00015569808499275262
-0.00015294236667429682
-0.00014467521171892948
-0.00014191949340047367
-0.000150186648355841
-0.0001584538033112084
-0.000150186648355841
-0.00014743093003738526
-0.000150186648355841
-0.0001584538033112084
-0.0001612095216296642
-0.00015294236667429682
-0.00014743093003738526
-0.000150186648355841
-0.00015569808499275262
-0.0001584538033112084
-0.00015569808499275262
-0.00015294236667429682
-0.00015294236667429682
-0.0001612095216296642
-0.00016672095826657574
-0.00016396523994811996
-0.00015294236667429682
-0.00015294236667429682
-0.0001584538033112084
-0.00016396523994811996
-0.0001612095216296642
-0.00015569808499275262
-0.00015294236667429682
-0.0001584538033112084
-0.00016672095826657574
-0.0001612095216296642
-0.00015569808499275262
-0.0001584538033112084
-0.0001612095216296642
-0.00016672095826657574
-0.00016672095826657574
-0.0001584538033112084
-0.00015569808499275262
-0.0001584538033112084
-0.00016396523994811996
-0.00016396523994811996
-0.0001584538033112084
-0.00015569808499275262
-0.00015569808499275262
-0.00016396523994811996
-0.00016396523994811996
-0.000150186648355841
-0.00013089662012665053
-0.00012814090180819475
-0.00012538518348973897
-0.00012814090180819475
-0.00011160659189746003
-7.57822537575348e-05
-5.6492225528344285e-05
-5.098078889143272e-05
-5.3736507209888505e-05
-5.6492225528344285e-05
-6.751509880216745e-05
-8.404940871290214e-05
-9.78280003051811e-05
-0.00010885087357900426
-0.00011160659189746003
-9.507228198672531e-05
-8.956084534981374e-05
-0.00010333943694209268
-0.00012814090180819475
-0.000150186648355841
-0.00016396523994811996
-0.00016672095826657574
-0.00016672095826657574
-0.00016947667658503157
-0.00017498811322194308
-0.00017223239490348733
-0.0001612095216296642
-0.00016947667658503157
-0.00017498811322194308
-0.00017223239490348733
-0.00016396523994811996
-0.00016396523994811996
-0.00016672095826657574
-0.00014467521171892948
-5.3736507209888505e-05
9.23165636682682e-05
0.0002576596627756154
0.00042300276188296266
0.0005966130159456772
0.0008666734111543443
0.0012111382009613175
0.001379237018387121
0.0010292607919432355
2.066788738841773e-05
-0.0013737255817502102
-0.002076433752956436
-0.002037853696498055
-0.0018587320057984289
-0.0017044117799649048
-0.0015225343709468226
-0.001266252567330435
-0.0009135206225680943
-0.0005966130159456783
-0.0004202470435645082
-0.0002989954375524536
-0.00023010247959105888
-0.00018876670481422206
-0.00015569808499275262
-0.00013089662012665053
-0.00011436231021591582
-8.956084534981374e-05
-6.200366216525588e-05
-4.2713633936065354e-05
-3.169076066224221e-05
-2.6179324025330647e-05
-1.5156450751507488e-05
1.3778591592272275e-06
1.5156450751506162e-05
2.066788738841773e-05
1.7912169069961946e-05
1.7912169069961946e-05
3.444647898069667e-05
4.546935225451981e-05
5.373650720988717e-05
5.9247943846798756e-05
6.200366216525454e-05
7.02708171206219e-05
8.404940871290084e-05
9.507228198672396e-05
0.00010058371862363556
0.00010609515526054714
0.00011711802853437029
0.00013089662012664922
0.00014467521171892812
0.00015018664835583973
0.00015294236667429551
0.00016672095826657444
0.00018876670481422076
0.00020530101472495543
0.0002135681696803228
0.00022459104295414594
0.0002383696345464249
0.0002576596627756154
0.0002741939726863501
0.00029072828259708476
0.0003127740291447311
0.0003348197756923775
0.00035410980392156795
0.00036788839551384685
0.00037891126878767
0.00038993414206149314
0.0004064684519722279
0.00042851419851987416
0.0004367813534752416
0.0004395370717936973
0.0004367813534752416
0.0004450485084306089
0.0004588271000228878
0.0004588271000228878
0.0004505599450675205
0.0004395370717936973
0.0004367813534752416
0.0004367813534752416
0.00042851419851987416
0.0004064684519722279
0.00037891126878767
0.00035135408560311223
0.00032104118410009855
0.0002824611276417174
0.00023285819790951333
0.000172232394903486
0.00012262946517128183
8.956084534981241e-05
5.9247943846798756e-05
2.066788738841773e-05
-1.5156450751507488e-05
-4.2713633936065354e-05
-5.9247943846800084e-05
-6.475938048371164e-05
-7.85379720759906e-05
-9.507228198672531e-05
-0.00010885087357900426
-0.00011436231021591582
-0.00011436231021591582
-0.00011436231021591582
-0.0001226294651712832
-0.00012814090180819475
-0.00013089662012665053
-0.00012814090180819475
-0.00012814090180819475
-0.0001336523384451063
-0.00014191949340047367
-0.00014191949340047367
-0.0001364080567635621
-0.0001336523384451063
-0.0001364080567635621
-0.00014191949340047367
-0.00014191949340047367
-0.0001364080567635621
-0.00012814090180819475
-0.00012814090180819475
-0.00013089662012665053
-0.0001364080567635621
-0.0001336523384451063
-0.0001226294651712832
-0.0001171180285343716
-0.0001198737468528274
-0.00012814090180819475
-0.00012814090180819475
-0.0001198737468528274
-0.00011160659189746003
-0.00011436231021591582
-0.0001198737468528274
-0.00010885087357900426
-0.00010333943694209268
-0.00010333943694209268
-0.00011160659189746003
-0.00011160659189746003
-0.00010333943694209268
-0.00010333943694209268
-0.00010333943694209268
-0.00010609515526054846
-0.00011160659189746003
-0.00011160659189746003
-0.00010609515526054846
-0.00010609515526054846
-0.0001171180285343716
-0.00012538518348973897
-0.0001226294651712832
-0.0001171180285343716
-0.00011436231021591582
-0.0001226294651712832
-0.00012814090180819475
-0.0001226294651712832
-0.0001198737468528274
-0.0001198737468528274
-0.0001226294651712832
-0.00013089662012665053
-0.00013089662012665053
-0.00012538518348973897
-0.0001226294651712832
-0.00012814090180819475
-0.0001364080567635621
-0.0001364080567635621
-0.00013089662012665053
-0.00012538518348973897
-0.00012814090180819475
-0.0001336523384451063
-0.0001336523384451063
-0.00013089662012665053
-0.00012538518348973897
-0.00012538518348973897
-0.00013089662012665053
-0.0001336523384451063
-0.0001336523384451063
-0.00012814090180819475
-0.00012814090180819475
-0.00013089662012665053
-0.0001336523384451063
-0.00013089662012665053
-0.00012538518348973897
-0.00012538518348973897
-0.0001336523384451063
-0.0001391637750820179
-0.0001336523384451063
-0.00012814090180819475
-0.0001226294651712832
-0.00012538518348973897
-0.00013089662012665053
-0.0001226294651712832
-0.00010609515526054846
-9.231656366826955e-05
-8.680512703135793e-05
-9.507228198672531e-05
-7.85379720759906e-05
-4.5469352254521147e-05
-2.6179324025330647e-05
-2.342360570687485e-05
-2.8935042343786426e-05
-4.2713633936065354e-05
-5.6492225528344285e-05
-7.027081712062322e-05
-7.85379720759906e-05
-8.129369039444639e-05
-7.027081712062322e-05
-6.751509880216745e-05
-7.85379720759906e-05
-0.00010058371862363688
-0.00012814090180819475
-0.00014191949340047367
-0.0001364080567635621
-0.00013089662012665053
-0.0001336523384451063
-0.0001364080567635621
-0.00014191949340047367
-0.0001391637750820179
-0.00013089662012665053
-0.0001336523384451063
-0.0001391637750820179
-0.00014191949340047367
-0.0001364080567635621
-0.0001336523384451063
-0.00012538518348973897
-8.404940871290214e-05
2.3423605706873515e-05
0.000172232394903486
0.00034584264896620056
0.0005166971847104594
0.0007233760585946433
0.0010292607919432355
0.0013461683985656512
0.0013489241168841066
0.000767467551689936
-0.0004974071564812702
-0.001726457526512551
-0.002065410879682613
-0.0019083349355306328
-0.00174023611810483
-0.001585915892271306
-0.0013902598916609454
-0.0011064209048599993
-0.0007536889600976582
-0.0004946514381628143
-0.0003403312123292903
-0.00024112535286488197
-0.0001997895780880452
-0.00016947667658503157
-0.00012814090180819475
-0.00010058371862363688
-8.404940871290214e-05
-6.200366216525588e-05
-4.2713633936065354e-05
-2.066788738841907e-05
-6.889295796140132e-06
-1.377859159228559e-06
4.133577477683014e-06
1.5156450751506162e-05
2.6179324025329308e-05
3.444647898069667e-05
3.9957915617608246e-05
3.9957915617608246e-05
4.82250705729756e-05
6.200366216525454e-05
7.578225375753347e-05
7.853797207598924e-05
7.853797207598924e-05
8.68051270313566e-05
9.782800030517979e-05
0.00011160659189745871
0.00011711802853437029
0.00012814090180819342
0.00014467521171892812
0.00016120952162966288
0.00017774383154039756
0.0001832552681773092
0.00018876670481422076
0.00019978957808804387
0.0002218353246356902
0.0002383696345464249
0.00024663678950179223
0.00026041538109407124
0.0002769496910048059
0.00029623971923399637
0.000315529747463187
0.00032379690241855427
0.00033206405737392166
0.0003485983672846564
0.00037615555046921414
0.0003982012970168605
0.0004092241702906837
0.00041197988860913943
0.00042300276188296266
0.0004395370717936973
0.000456071381704432
0.0004643385366597993
0.0004588271000228878
0.0004588271000228878
0.0004643385366597993
0.0004670942549782553
0.0004588271000228878
0.0004478042267490647
0.0004367813534752416
0.0004340256351567857
0.00042851419851987416
0.00041197988860913943
0.00037891126878767
0.000340331212329289
0.000301751155870908
0.000263171099412527
0.0002190796063172344
0.00016672095826657444
0.00011711802853437029
7.578225375753347e-05
4.271363393606403e-05
1.2400732433050376e-05
-1.7912169069963278e-05
-4.8225070572976926e-05
-7.027081712062322e-05
-7.57822537575348e-05
-8.129369039444639e-05
-9.507228198672531e-05
-0.00010885087357900426
-0.00011436231021591582
-0.0001171180285343716
-0.0001171180285343716
-0.0001198737468528274
-0.00012538518348973897
-0.00012814090180819475
-0.00013089662012665053
-0.00012538518348973897
-0.00012814090180819475
-0.0001364080567635621
-0.00014467521171892948
-0.00014467521171892948
-0.0001364080567635621
-0.0001364080567635621
-0.0001391637750820179
-0.00014467521171892948
-0.00014191949340047367
-0.0001364080567635621
-0.0001364080567635621
-0.0001364080567635621
-0.0001364080567635621
-0.00012538518348973897
-0.0001198737468528274
-0.0001198737468528274
-0.00012538518348973897
-0.00012814090180819475
-0.0001226294651712832
-0.0001171180285343716
-0.00011436231021591582
-0.0001226294651712832
-0.0001226294651712832
-0.0001171180285343716
-0.00010885087357900426
-0.00010609515526054846
-0.00011160659189746003
-0.00011436231021591582
-0.00011160659189746003
-0.00010885087357900426
-0.00010885087357900426
-0.00011160659189746003
-0.0001198737468528274
-0.0001226294651712832
-0.0001198737468528274
-0.00011436231021591582
-0.0001198737468528274
-0.00012814090180819475
-0.0001364080567635621
-0.00013089662012665053
-0.0001226294651712832
-0.00012538518348973897
-0.00013089662012665053
-0.0001364080567635621
-0.0001364080567635621
-0.00012814090180819475
-0.00012814090180819475
-0.0001364080567635621
-0.00014191949340047367
-0.00014467521171892948
-0.00014467521171892948
-0.00014191949340047367
-0.00014467521171892948
-0.00014743093003738526
-0.00014467521171892948
-0.0001364080567635621
-0.0001336523384451063
-0.0001391637750820179
-0.00014743093003738526
-0.000150186648355841
-0.00014467521171892948
-0.00014191949340047367
-0.00014743093003738526
-0.0001584538033112084
-0.00015569808499275262
-0.00014743093003738526
-0.00014467521171892948
-0.00014467521171892948
-0.000150186648355841
-0.000150186648355841
-0.0001364080567635621
-0.0001171180285343716
-0.00010885087357900426
-0.00010885087357900426
-0.00011160659189746003
-0.00010885087357900426
-5.3736507209888505e-05
-4.5469352254521147e-05
-5.098078889143272e-05
-4.8225070572976926e-05
-5.098078889143272e-05
-6.475938048371164e-05
-8.404940871290214e-05
-9.507228198672531e-05
-9.78280003051811e-05
-8.680512703135793e-05
-7.85379720759906e-05
-9.231656366826955e-05
-0.00011436231021591582
-0.0001336523384451063
-0.00014743093003738526
-0.00015294236667429682
-0.00015569808499275262
-0.0001584538033112084
-0.0001612095216296642
-0.0001612095216296642
-0.0001584538033112084
-0.00015569808499275262
-0.00015569808499275262
-0.0001584538033112084
-0.0001584538033112084
-0.00015294236667429682
-0.000150186648355841
-0.00015569808499275262
-0.000150186648355841
-8.680512703135793e-05
4.546935225451981e-05
0.00020805673304341124
0.00036788839551384685
0.0005249643396658268
0.0007399103685053779
0.0010430393835355147
0.0012745197222858006
0.0011064209048599978
0.00032655262073701005
-0.0010457951018539718
-0.0021039909361409937
-0.0022638225986114295
-0.002048876569771878
-0.0018614877241168843
-0.0016961446250095377
-0.0014894657511253533
-0.0012138939192797744
-0.0008776962844281688
-0.0005938572976272227
-0.0004147356069275966
-0.0002824611276417188
-0.0002080567330434125
-0.00016672095826657574
-0.0001391637750820179
-0.00011436231021591582
-8.404940871290214e-05
-5.6492225528344285e-05
-3.169076066224221e-05
-1.5156450751507488e-05
-4.133577477684346e-06
6.8892957961388014e-06
2.066788738841773e-05
3.720219729915245e-05
4.546935225451981e-05
5.098078889143139e-05
5.649222552834297e-05
7.30265354390777e-05
8.68051270313566e-05
9.507228198672396e-05
0.00010333943694209132
0.00011987374685282605
0.00013365233844510492
0.00013916377508201656
0.00014191949340047234
0.00014743093003738393
0.00016120952162966288
0.0001832552681773092
0.0001970338597695881
0.00020254529640649968
0.000210812451361867
0.00022459104295414594
0.00024388107118333642
0.000263171099412527
0.00027143825436789435
0.00027970540932326175
0.000301751155870908
0.00032655262073701005
0.00034584264896620056
0.000365132677195391
0.0003733998321507585
0.00038717842374303736
0.00041473560692759526
0.0004422927901121532
0.0004643385366597993
0.0004808728465705341
0.0004946514381628131
0.0005139414663920035
0.0005332314946211942
0.0005497658045319286
0.0005580329594872961
0.0005580329594872961
0.0005663001144426635
0.0005773229877164866
0.0005745672693980309
0.0005718115510795751
0.000560788677805752
0.0005580329594872961
0.0005525215228503846
0.0005414986495765614
0.0005194529030289152
0.0004781171282520784
0.0004395370717936973
0.0004009570153353164
0.00035135408560311223
0.0002852168459601733
0.00021632388799877858
0.0001556980849927513
0.00010885087357900291
7.02708171206219e-05
2.8935042343785094e-05
-1.240073243305171e-05
-4.8225070572976926e-05
-6.751509880216745e-05
-7.85379720759906e-05
-9.507228198672531e-05
-0.00011160659189746003
-0.0001226294651712832
-0.00012814090180819475
-0.00012814090180819475
-0.00013089662012665053
-0.0001364080567635621
-0.00014467521171892948
-0.00014191949340047367
-0.0001364080567635621
-0.0001364080567635621
-0.00014743093003738526
-0.0001584538033112084
-0.00015294236667429682
-0.000150186648355841
-0.00015294236667429682
-0.0001612095216296642
-0.0001584538033112084
-0.00015294236667429682
-0.00014743093003738526
-0.00014743093003738526
-0.00015294236667429682
-0.00015294236667429682
-0.00014467521171892948
-0.0001364080567635621
-0.00013089662012665053
-0.0001336523384451063
-0.0001364080567635621
-0.00012814090180819475
-0.0001226294651712832
-0.0001171180285343716
-0.0001226294651712832
-0.0001226294651712832
-0.0001171180285343716
-0.00010885087357900426
-0.00010333943694209268
-0.00010609515526054846
-0.00011160659189746003
-0.00011160659189746003
-0.00010333943694209268
-0.00010333943694209268
-0.00011160659189746003
-0.0001198737468528274
-0.0001198737468528274
-0.00011160659189746003
-0.00011160659189746003
-0.00011436231021591582
-0.0001226294651712832
-0.00012814090180819475
-0.00012814090180819475
-0.0001226294651712832
-0.0001198737468528274
-0.00012814090180819475
-0.0001336523384451063
-0.00012814090180819475
-0.0001226294651712832
-0.00012538518348973897
-0.0001364080567635621
-0.00014191949340047367
-0.0001364080567635621
-0.00013089662012665053
-0.00012814090180819475
-0.0001364080567635621
-0.00014191949340047367
-0.0001391637750820179
-0.0001336523384451063
-0.00013089662012665053
-0.0001336523384451063
-0.0001364080567635621
-0.0001226294651712832
-0.00010609515526054846
-9.507228198672531e-05
-8.956084534981374e-05
-9.231656366826955e-05
-8.129369039444639e-05
-5.6492225528344285e-05
-3.4446478980697995e-05
-2.342360570687485e-05
-2.6179324025330647e-05
-3.4446478980697995e-05
-4.8225070572976926e-05
-7.027081712062322e-05
-7.57822537575348e-05
-8.680512703135793e-05
-8.404940871290214e-05
-7.57822537575348e-05
-8.956084534981374e-05
-0.00011160659189746003
-0.0001336523384451063
-0.00014467521171892948
-0.00014191949340047367
-0.00014191949340047367
-0.00014743093003738526
-0.00015294236667429682
-0.00015294236667429682
-0.000150186648355841
-0.00014467521171892948
-0.00014743093003738526
-0.000150186648355841
-0.00015569808499275262
-0.00015294236667429682
-0.00014743093003738526
-0.00014467521171892948
-0.00011436231021591582
-2.066788738841907e-05
0.00013916377508201656
0.0003182854657816428
0.0004808728465705341
0.0006462159456778814
0.000855650537880521
0.0010733522850385282
0.001048550820172426
0.0005001628747997245
-0.0006103916075379574
-0.001919357808804456
-0.0024897915007248044
-0.002382318486305028
-0.0021232809643701844
-0.001913846372167545
-0.0017181903715571835
-0.00147844287785153
-0.001156023834592203
-0.0007895132982375835
-0.0005249643396658282
-0.00035410980392156926
-0.00023836963454642628
-0.0001777438315403989
-0.00013089662012665053
-9.507228198672531e-05
-7.027081712062322e-05
-4.8225070572976926e-05
-2.066788738841907e-05
6.8892957961388014e-06
2.6179324025329308e-05
3.169076066224089e-05
3.444647898069667e-05
4.82250705729756e-05
6.475938048371032e-05
8.129369039444505e-05
8.68051270313566e-05
9.23165636682682e-05
9.782800030517979e-05
0.00010885087357900291
0.00012262946517128183
0.00013365233844510492
0.00013640805676356078
0.00014467521171892812
0.00016120952162966288
0.000172232394903486
0.00018876670481422076
0.00019427814145113231
0.0002135681696803228
0.00023285819790951333
0.00024112535286488067
0.00025214822613870384
0.00026041538109407124
0.0002824611276417174
0.00031001831082627527
0.00033206405737392166
0.000340331212329289
0.00035135408560311223
0.00037615555046921414
0.00040371273365377215
0.00043126991683832994
0.0004478042267490647
0.0004643385366597993
0.0004863842832074457
0.0005139414663920035
0.0005414986495765614
0.000560788677805752
0.0005773229877164866
0.000599368734264133
0.0006214144808117793
0.0006407045090409697
0.0006489716639963371
0.0006517273823147929
0.0006544831006332488
0.0006572388189517045
0.0006572388189517045
0.0006489716639963371
0.0006407045090409697
0.0006269259174486908
0.0006159030441748677
0.000599368734264133
0.0005663001144426635
0.0005166971847104594
0.0004588271000228878
0.0004009570153353164
0.000340331212329289
0.0002824611276417174
0.0002135681696803228
0.00015018664835583973
0.00010333943694209132
6.475938048371032e-05
3.169076066224089e-05
-4.133577477684346e-06
-3.169076066224221e-05
-5.098078889143272e-05
-6.200366216525588e-05
-6.751509880216745e-05
-7.57822537575348e-05
-8.680512703135793e-05
-0.00010058371862363688
-0.00010333943694209268
-0.00010058371862363688
-0.00010333943694209268
-0.00011160659189746003
-0.0001226294651712832
-0.0001198737468528274
-0.00011160659189746003
-0.00010885087357900426
-0.00011160659189746003
-0.0001171180285343716
-0.0001198737468528274
-0.0001171180285343716
-0.0001171180285343716
-0.0001198737468528274
-0.0001198737468528274
-0.00011160659189746003
-0.00010609515526054846
-0.00010333943694209268
-0.00010885087357900426
-0.00010609515526054846
-9.78280003051811e-05
-8.956084534981374e-05
-8.956084534981374e-05
-9.507228198672531e-05
-9.231656366826955e-05
-8.680512703135793e-05
-8.129369039444639e-05
-8.129369039444639e-05
-8.129369039444639e-05
-8.129369039444639e-05
-7.85379720759906e-05
-7.302653543907902e-05
-7.027081712062322e-05
-7.85379720759906e-05
-8.129369039444639e-05
-7.57822537575348e-05
-6.751509880216745e-05
-6.751509880216745e-05
-7.302653543907902e-05
-7.85379720759906e-05
-7.57822537575348e-05
-6.751509880216745e-05
-6.475938048371164e-05
-7.302653543907902e-05
-8.404940871290214e-05
-8.680512703135793e-05
-8.404940871290214e-05
-7.57822537575348e-05
-7.57822537575348e-05
-8.404940871290214e-05
-8.680512703135793e-05
-8.680512703135793e-05
-8.404940871290214e-05
-8.404940871290214e-05
-8.956084534981374e-05
-9.507228198672531e-05
-8.956084534981374e-05
-8.129369039444639e-05
-8.404940871290214e-05
-9.231656366826955e-05
-9.78280003051811e-05
-9.231656366826955e-05
-8.129369039444639e-05
-7.85379720759906e-05
-8.680512703135793e-05
-8.404940871290214e-05
-6.751509880216745e-05
-5.6492225528344285e-05
-4.2713633936065354e-05
-3.4446478980697995e-05
-3.720219729915378e-05
-2.6179324025330647e-05
-4.133577477684346e-06
1.5156450751506162e-05
2.3423605706873515e-05
1.7912169069961946e-05
1.2400732433050376e-05
-1.377859159228559e-06
-1.240073243305171e-05
-2.066788738841907e-05
-3.169076066224221e-05
-3.720219729915378e-05
-2.342360570687485e-05
-3.720219729915378e-05
-5.9247943846800084e-05
-8.680512703135793e-05
-0.00010058371862363688
-0.00010058371862363688
-9.78280003051811e-05
-0.00010058371862363688
-0.00010885087357900426
-0.00010885087357900426
-0.00010058371862363688
-9.507228198672531e-05
-9.78280003051811e-05
-0.00010609515526054846
-0.00010609515526054846
-0.00010058371862363688
-9.78280003051811e-05
-9.507228198672531e-05
-7.027081712062322e-05
2.066788738841773e-05
0.00017774383154039756
0.0003596212405584795
0.0005359872129396498
0.0006958188754100854
0.00092178777752346
0.001169802426184481
0.0012028710460059502
0.0007371546501869223
-0.0002962397192339978
-0.0016052059205004963
-0.0022583111619745183
-0.002203196795605402
-0.001991006485084307
-0.0017953504844739458
-0.001588671610589762
-0.001324122652018006
-0.0009576121156633864
-0.0005938572976272227
-0.00037339983215075977
-0.00023836963454642628
-0.00016947667658503157
-0.00012538518348973897
-8.404940871290214e-05
-5.3736507209888505e-05
-3.169076066224221e-05
-1.240073243305171e-05
1.2400732433050376e-05
3.169076066224089e-05
4.546935225451981e-05
5.098078889143139e-05
5.649222552834297e-05
6.751509880216611e-05
8.404940871290084e-05
9.23165636682682e-05
9.23165636682682e-05
9.507228198672396e-05
0.00010058371862363556
0.00011711802853437029
0.00012814090180819342
0.00013089662012664922
0.00013089662012664922
0.00013916377508201656
0.0001556980849927513
0.0001694766765850302
0.00017774383154039756
0.0001832552681773092
0.00018876670481422076
0.00020530101472495543
0.00022459104295414594
0.00023285819790951333
0.00024663678950179223
0.00026592681773098274
0.0002852168459601733
0.000301751155870908
0.0003127740291447311
0.00032379690241855427
0.0003430869306477448
0.000365132677195391
0.0003844227054245816
0.0003982012970168605
0.00041473560692759526
0.0004340256351567857
0.000456071381704432
0.0004781171282520784
0.0004891400015259016
0.0004974071564812689
0.0005111857480735478
0.0005304757763027383
0.0005497658045319286
0.0005552772411688404
0.0005525215228503846
0.0005580329594872961
0.0005635443961242077
0.0005690558327611192
0.0005635443961242077
0.0005525215228503846
0.0005414986495765614
0.0005387429312581057
0.0005304757763027383
0.000508430029755092
0.000469849973296711
0.00042575848020141833
0.00037891126878767
0.0003293083390554659
0.0002741939726863501
0.0002190796063172344
0.00016672095826657444
0.00012262946517128183
8.956084534981241e-05
5.9247943846798756e-05
2.6179324025329308e-05
-4.133577477684346e-06
-2.6179324025330647e-05
-3.720219729915378e-05
-4.5469352254521147e-05
-5.3736507209888505e-05
-7.027081712062322e-05
-7.57822537575348e-05
-7.302653543907902e-05
-7.302653543907902e-05
-8.129369039444639e-05
-8.956084534981374e-05
-9.507228198672531e-05
-9.231656366826955e-05
-8.956084534981374e-05
-8.956084534981374e-05
-9.507228198672531e-05
-0.00010058371862363688
-0.00010333943694209268
-0.00010058371862363688
-0.00010058371862363688
-0.00010333943694209268
-0.00010885087357900426
-0.00010609515526054846
-9.78280003051811e-05
-9.78280003051811e-05
-9.78280003051811e-05
-0.00010058371862363688
-9.507228198672531e-05
-8.956084534981374e-05
-9.231656366826955e-05
-9.507228198672531e-05
-9.507228198672531e-05
-8.956084534981374e-05
-8.404940871290214e-05
-8.129369039444639e-05
-8.404940871290214e-05
-8.680512703135793e-05
-8.129369039444639e-05
-7.027081712062322e-05
-6.751509880216745e-05
-7.57822537575348e-05
-7.57822537575348e-05
-7.027081712062322e-05
-6.200366216525588e-05
-6.200366216525588e-05
-7.027081712062322e-05
-7.57822537575348e-05
-7.302653543907902e-05
-6.751509880216745e-05
-6.475938048371164e-05
-7.302653543907902e-05
-8.129369039444639e-05
-8.404940871290214e-05
-7.57822537575348e-05
-7.57822537575348e-05
-7.85379720759906e-05
-8.404940871290214e-05
-8.680512703135793e-05
-8.404940871290214e-05
-7.85379720759906e-05
-8.129369039444639e-05
-8.680512703135793e-05
-8.956084534981374e-05
-8.680512703135793e-05
-7.85379720759906e-05
-7.85379720759906e-05
-8.404940871290214e-05
-8.956084534981374e-05
-8.680512703135793e-05
-8.129369039444639e-05
-8.404940871290214e-05
-8.956084534981374e-05
-9.231656366826955e-05
-8.956084534981374e-05
-8.129369039444639e-05
-8.129369039444639e-05
-8.404940871290214e-05
-8.680512703135793e-05
-8.956084534981374e-05
-8.404940871290214e-05
-7.302653543907902e-05
-6.200366216525588e-05
-6.475938048371164e-05
-6.200366216525588e-05
-4.8225070572976926e-05
-3.4446478980697995e-05
-1.5156450751507488e-05
-4.133577477684346e-06
1.3778591592272275e-06
1.5156450751506162e-05
2.3423605706873515e-05
1.2400732433050376e-05
-1.240073243305171e-05
-3.169076066224221e-05
-3.169076066224221e-05
-2.6179324025330647e-05
-2.342360570687485e-05
-3.4446478980697995e-05
-5.098078889143272e-05
-6.200366216525588e-05
-7.302653543907902e-05
-9.231656366826955e-05
-0.00010333943694209268
-0.00010058371862363688
-9.507228198672531e-05
-8.956084534981374e-05
-9.507228198672531e-05
-0.00010333943694209268
-9.78280003051811e-05
-8.956084534981374e-05
-8.680512703135793e-05
-8.680512703135793e-05
-9.78280003051811e-05
-0.00010333943694209268
-8.956084534981374e-05
-3.169076066224221e-05
8.404940871290084e-05
0.00023010247959105753
0.0003982012970168605
0.0005663001144426635
0.0007784904249637591
0.0010761080033569843
0.00135994699015793
0.0013296340886549166
0.0007316432135500107
-0.0005166971847104609
-0.0017457475547417414
-0.0021150138094148166
-0.001977227893492027
-0.0018008619211108575
-0.0016134730754558636
-0.0013875041733424894
-0.0010816194399938968
-0.0007178646219577333
-0.0004560713817044334
-0.00028797256427863044
-0.00018601098649576628
-0.00014743093003738526
-0.0001198737468528274
-9.231656366826955e-05
-6.200366216525588e-05
-3.169076066224221e-05
-9.64501411459592e-06
4.133577477683014e-06
1.2400732433050376e-05
2.6179324025329308e-05
4.546935225451981e-05
5.9247943846798756e-05
6.200366216525454e-05
6.475938048371032e-05
7.02708171206219e-05
8.68051270313566e-05
9.782800030517979e-05
9.782800030517979e-05
0.00010058371862363556
0.00010885087357900291
0.00011987374685282605
0.00013365233844510492
0.00013916377508201656
0.00014191949340047234
0.00015018664835583973
0.00016396523994811866
0.00018876670481422076
0.0001970338597695881
0.00020254529640649968
0.00021632388799877858
0.00023285819790951333
0.00024388107118333642
0.0002493925078202481
0.00026041538109407124
0.00027970540932326175
0.000301751155870908
0.000315529747463187
0.00032379690241855427
0.0003375754940108332
0.0003568655222400236
0.0003816669871061258
0.0004009570153353164
0.00041749132524605104
0.00042575848020141833
0.0004395370717936973
0.0004615828183413437
0.0004863842832074457
0.0004974071564812689
0.0005001628747997245
0.0005111857480735478
0.0005249643396658268
0.0005359872129396498
0.0005359872129396498
0.0005332314946211942
0.0005277200579842825
0.0005304757763027383
0.0005332314946211942
0.0005277200579842825
0.0005139414663920035
0.0004946514381628131
0.0004726056916151668
0.0004505599450675205
0.00041473560692759526
0.0003623769588769353
0.0003072625925078196
0.0002549039444571596
0.000210812451361867
0.00016672095826657444
0.00011987374685282605
7.02708171206219e-05
3.720219729915245e-05
1.7912169069961946e-05
1.3778591592272275e-06
-1.7912169069963278e-05
-4.2713633936065354e-05
-5.9247943846800084e-05
-5.9247943846800084e-05
-5.9247943846800084e-05
-6.751509880216745e-05
-7.85379720759906e-05
-8.680512703135793e-05
-8.680512703135793e-05
-8.129369039444639e-05
-8.404940871290214e-05
-9.507228198672531e-05
-9.78280003051811e-05
-9.507228198672531e-05
-9.231656366826955e-05
-9.231656366826955e-05
-0.00010058371862363688
-0.00010885087357900426
-0.00010885087357900426
-0.00010058371862363688
-9.507228198672531e-05
-0.00010333943694209268
-0.00010333943694209268
-0.00010058371862363688
-9.507228198672531e-05
-9.507228198672531e-05
-9.78280003051811e-05
-0.00010058371862363688
-9.231656366826955e-05
-8.956084534981374e-05
-8.956084534981374e-05
-9.231656366826955e-05
-9.507228198672531e-05
-9.231656366826955e-05
-8.404940871290214e-05
-8.129369039444639e-05
-8.680512703135793e-05
-8.404940871290214e-05
-8.129369039444639e-05
-7.85379720759906e-05
-7.57822537575348e-05
-7.85379720759906e-05
-8.404940871290214e-05
-8.404940871290214e-05
-7.85379720759906e-05
-7.027081712062322e-05
-7.57822537575348e-05
-8.680512703135793e-05
-8.680512703135793e-05
-8.129369039444639e-05
-7.57822537575348e-05
-8.129369039444639e-05
-8.680512703135793e-05
-8.956084534981374e-05
-8.956084534981374e-05
-8.680512703135793e-05
-8.680512703135793e-05
-9.507228198672531e-05
-0.00010058371862363688
-9.78280003051811e-05
-9.231656366826955e-05
-8.956084534981374e-05
-9.78280003051811e-05
-0.00010058371862363688
-9.507228198672531e-05
-8.680512703135793e-05
-8.680512703135793e-05
-9.231656366826955e-05
-9.78280003051811e-05
-9.507228198672531e-05
-8.680512703135793e-05
-8.680512703135793e-05
-9.507228198672531e-05
-0.00010058371862363688
-9.78280003051811e-05
-9.231656366826955e-05
-9.231656366826955e-05
-9.78280003051811e-05
-0.00010333943694209268
-0.00010333943694209268
-0.00010058371862363688
-9.507228198672531e-05
-9.231656366826955e-05
-9.507228198672531e-05
-9.78280003051811e-05
-9.231656366826955e-05
-8.956084534981374e-05
-8.404940871290214e-05
-7.302653543907902e-05
-7.302653543907902e-05
-5.098078889143272e-05
-4.8225070572976926e-05
-3.169076066224221e-05
-1.240073243305171e-05
4.133577477683014e-06
1.5156450751506162e-05
1.7912169069961946e-05
1.3778591592272275e-06
-2.6179324025330647e-05
-4.5469352254521147e-05
-4.5469352254521147e-05
-3.995791561760957e-05
-3.4446478980697995e-05
-3.4446478980697995e-05
-4.2713633936065354e-05
-5.3736507209888505e-05
-6.751509880216745e-05
-8.956084534981374e-05
-0.00011160659189746003
-0.00011436231021591582
-0.00010885087357900426
-0.00010333943694209268
-0.00010609515526054846
-0.00011160659189746003
-0.00011436231021591582
-0.00011436231021591582
-0.00010333943694209268
-0.00010333943694209268
-0.00010333943694209268
-0.00010885087357900426
-0.00011160659189746003
-8.956084534981374e-05
-3.4446478980697995e-05
8.129369039444505e-05
0.00023010247959105753
0.0004009570153353164
0.0005745672693980309
0.0008005361715114055
0.0011119323414969095
0.0013930156099793995
0.001318611215381093
0.0006462159456778814
-0.0006737731288624405
-0.0018173962310215922
-0.002062655161364157
-0.001891800625619898
-0.001715434653238728
-0.0015418243991760134
-0.0013296340886549175
-0.001026505073624781
-0.0006792845654993521
-0.00043678135347524285
-0.0002824611276417188
-0.00019152242313267784
-0.0001584538033112084
-0.00013089662012665053
-9.507228198672531e-05
-6.200366216525588e-05
-3.995791561760957e-05
-2.342360570687485e-05
-1.240073243305171e-05
4.133577477683014e-06
2.8935042343785094e-05
4.271363393606403e-05
4.546935225451981e-05
4.546935225451981e-05
5.373650720988717e-05
6.475938048371032e-05
8.129369039444505e-05
8.404940871290084e-05
8.956084534981241e-05
0.00010058371862363556
0.00011160659189745871
0.00012262946517128183
0.0001253851834897376
0.00012814090180819342
0.00014191949340047234
0.0001556980849927513
0.00016672095826657444
0.000172232394903486
0.00018049954985885336
0.00018876670481422076
0.00020254529640649968
0.00021632388799877858
0.00022734676127260172
0.00023561391622796914
0.0002493925078202481
0.00027143825436789435
0.0002879725642786291
0.0002989954375524522
0.0003072625925078196
0.0003182854657816428
0.000340331212329289
0.00036788839551384685
0.0003816669871061258
0.00038717842374303736
0.0004009570153353164
0.00041749132524605104
0.0004395370717936973
0.0004588271000228878
0.000469849973296711
0.0004726056916151668
0.0004863842832074457
0.0005001628747997245
0.000508430029755092
0.0005056743114366363
0.0004974071564812689
0.0005001628747997245
0.0005056743114366363
0.0005056743114366363
0.0004918957198443572
0.0004781171282520784
0.0004670942549782553
0.0004533156633859763
0.00042575848020141833
0.00038993414206149314
0.000340331212329289
0.0002934840009155406
0.00024663678950179223
0.00020530101472495543
0.00015294236667429551
0.00010333943694209132
5.9247943846798756e-05
3.444647898069667e-05
1.2400732433050376e-05
-1.240073243305171e-05
-3.720219729915378e-05
-5.9247943846800084e-05
-6.475938048371164e-05
-6.200366216525588e-05
-6.751509880216745e-05
-7.85379720759906e-05
-8.956084534981374e-05
-9.231656366826955e-05
-9.231656366826955e-05
-9.231656366826955e-05
-0.00010609515526054846
-0.00010885087357900426
-0.00010333943694209268
-0.00010058371862363688
-0.00010609515526054846
-0.00011436231021591582
-0.00011436231021591582
-0.00011160659189746003
-0.00010885087357900426
-0.00010885087357900426
-0.00011436231021591582
-0.0001198737468528274
-0.0001198737468528274
-0.00010885087357900426
-0.00010333943694209268
-0.00010609515526054846
-0.00010885087357900426
-0.00010609515526054846
-9.78280003051811e-05
-9.231656366826955e-05
-9.78280003051811e-05
-0.00010333943694209268
-9.78280003051811e-05
-8.956084534981374e-05
-8.404940871290214e-05
-8.956084534981374e-05
-9.231656366826955e-05
-9.231656366826955e-05
-8.404940871290214e-05
-8.129369039444639e-05
-8.680512703135793e-05
-8.956084534981374e-05
-9.231656366826955e-05
-8.680512703135793e-05
-8.129369039444639e-05
-8.404940871290214e-05
-8.956084534981374e-05
-9.507228198672531e-05
-9.507228198672531e-05
-9.231656366826955e-05
-9.507228198672531e-05
-9.78280003051811e-05
-0.00010333943694209268
-0.00010333943694209268
-0.00010058371862363688
-0.00010058371862363688
-0.00010885087357900426
-0.00011160659189746003
-0.00010885087357900426
-0.00010609515526054846
-0.00010609515526054846
-0.00011160659189746003
-0.0001171180285343716
-0.0001198737468528274
-0.00011436231021591582
-0.00011160659189746003
-0.00011160659189746003
-0.0001171180285343716
-0.0001198737468528274
-0.00011436231021591582
-0.00010885087357900426
-0.00011160659189746003
-0.0001171180285343716
-0.0001198737468528274
-0.0001198737468528274
-0.00011436231021591582
-0.00011436231021591582
-0.0001226294651712832
-0.0001198737468528274
-0.00011436231021591582
-0.00011160659189746003
-0.0001198737468528274
-0.0001226294651712832
-0.0001171180285343716
-0.00010609515526054846
-0.00010609515526054846
-0.00011160659189746003
-0.00011160659189746003
-0.00010058371862363688
-8.680512703135793e-05
-7.027081712062322e-05
-7.302653543907902e-05
-7.57822537575348e-05
-5.3736507209888505e-05
-2.342360570687485e-05
-9.64501411459592e-06
-4.133577477684346e-06
-9.64501411459592e-06
-2.342360570687485e-05
-3.995791561760957e-05
-5.098078889143272e-05
-5.6492225528344285e-05
-6.200366216525588e-05
-6.200366216525588e-05
-5.098078889143272e-05
-5.3736507209888505e-05
-6.751509880216745e-05
-9.507228198672531e-05
-0.0001226294651712832
-0.0001336523384451063
-0.0001226294651712832
-0.0001171180285343716
-0.0001198737468528274
-0.00012538518348973897
-0.00012538518348973897
-0.0001171180285343716
-0.00010885087357900426
-0.00011160659189746003
-0.0001171180285343716
-0.0001198737468528274
-0.0001171180285343716
-0.00011160659189746003
-9.78280003051811e-05
-3.995791561760957e-05
8.129369039444505e-05
0.00024388107118333642
0.00041749132524605104
0.000585590142671854
0.0008198261997405958
0.0011532681162737465
0.0014178170748455018
0.0012524739757381546
0.0004533156633859763
-0.0009383220874341961
-0.0019166020904860003
-0.002026830823224232
-0.0018366862592507824
-0.0016658317235065242
-0.0015004886243991764
-0.0012855425955596252
-0.0009741464255741213
-0.000629681635767148
-0.00041197988860914084
-0.00027143825436789566
-0.00019427814145113364
-0.0001612095216296642
-0.00012814090180819475
-6.475938048371164e-05
-4.8225070572976926e-05
-2.8935042343786426e-05
-6.889295796140132e-06
1.2400732433050376e-05
2.3423605706873515e-05
2.8935042343785094e-05
3.444647898069667e-05
4.546935225451981e-05
5.649222552834297e-05
6.200366216525454e-05
6.751509880216611e-05
7.02708171206219e-05
7.853797207598924e-05
8.956084534981241e-05
0.00010058371862363556
0.00010609515526054714
0.00010609515526054714
0.00011160659189745871
0.0001253851834897376
0.00013916377508201656
0.00014467521171892812
0.00014743093003738393
0.00015845380331120705
0.00017498811322194178
0.00019152242313267648
0.00019978957808804387
0.00020530101472495543
0.0002135681696803228
0.00022734676127260172
0.0002493925078202481
0.000263171099412527
0.00027143825436789435
0.00027970540932326175
0.0002989954375524522
0.00032104118410009855
0.0003430869306477448
0.00035135408560311223
0.000365132677195391
0.0003816669871061258
0.0004064684519722279
0.00042575848020141833
0.0004367813534752416
0.0004422927901121532
0.000456071381704432
0.000469849973296711
0.0004863842832074457
0.0004918957198443572
0.0004918957198443572
0.0004946514381628131
0.0005029185931181804
0.0005056743114366363
0.0005001628747997245
0.0004891400015259016
0.00047536140993362247
0.000469849973296711
0.0004588271000228878
0.0004367813534752416
0.00040371273365377215
0.0003596212405584795
0.0003182854657816428
0.0002741939726863501
0.00022734676127260172
0.00017498811322194178
0.00012262946517128183
8.129369039444505e-05
5.098078889143139e-05
2.6179324025329308e-05
-3.4446478980697995e-05
-5.9247943846800084e-05
-6.475938048371164e-05
-6.751509880216745e-05
-7.85379720759906e-05
-8.956084534981374e-05
-9.507228198672531e-05
-9.507228198672531e-05
-9.78280003051811e-05
-0.00010333943694209268
-0.00011436231021591582
-0.0001198737468528274
-0.0001171180285343716
-0.00010885087357900426
-0.00011436231021591582
-0.0001226294651712832
-0.00012814090180819475
-0.00013089662012665053
-0.0001226294651712832
-0.0001171180285343716
-0.0001198737468528274
-0.00012538518348973897
-0.0001226294651712832
-0.00011436231021591582
-0.00011436231021591582
-0.0001198737468528274
-0.00012538518348973897
-0.0001226294651712832
-0.0001171180285343716
-0.00011160659189746003
-0.00011436231021591582
-0.00011436231021591582
-0.0001171180285343716
-0.00011160659189746003
-0.00010333943694209268
-0.00010333943694209268
-0.00010885087357900426
-0.00011160659189746003
-0.00010609515526054846
-9.507228198672531e-05
-0.00010058371862363688
-0.00011160659189746003
-0.00011436231021591582
-0.00011160659189746003
-0.00010333943694209268
-0.00010333943694209268
-0.00010885087357900426
-0.00011436231021591582
-0.00011436231021591582
-0.00010885087357900426
-0.00010885087357900426
-0.00011160659189746003
-0.0001198737468528274
-0.0001198737468528274
-0.0001171180285343716
-0.00011436231021591582
-0.0001198737468528274
-0.00012814090180819475
-0.00012814090180819475
-0.0001226294651712832
-0.0001198737468528274
-0.0001226294651712832
-0.00012814090180819475
-0.00013089662012665053
-0.00012538518348973897
-0.0001171180285343716
-0.0001226294651712832
-0.00012814090180819475
-0.00012538518348973897
-0.0001198737468528274
-0.0001198737468528274
-0.00012814090180819475
-0.0001364080567635621
-0.0001336523384451063
-0.00012538518348973897
-0.0001226294651712832
-0.00012814090180819475
-0.0001336523384451063
-0.0001364080567635621
-0.00012814090180819475
-0.0001226294651712832
-0.00012814090180819475
-0.00012538518348973897
-0.0001171180285343716
-0.00010058371862363688
-8.956084534981374e-05
-8.680512703135793e-05
-9.507228198672531e-05
-7.85379720759906e-05
-5.098078889143272e-05
-3.169076066224221e-05
-2.342360570687485e-05
-2.342360570687485e-05
-2.8935042343786426e-05
-3.720219729915378e-05
-5.3736507209888505e-05
-6.475938048371164e-05
-7.302653543907902e-05
-7.85379720759906e-05
-7.302653543907902e-05
-6.475938048371164e-05
-7.57822537575348e-05
-0.00010058371862363688
-0.00012538518348973897
-0.00014467521171892948
-0.00014743093003738526
-0.0001391637750820179
-0.00014191949340047367
-0.000150186648355841
-0.00014467521171892948
-0.00014191949340047367
-0.0001364080567635621
-0.0001391637750820179
-0.00014743093003738526
-0.000150186648355841
-0.00014467521171892948
-0.00014191949340047367
-0.00014191949340047367
-0.0001171180285343716
-2.8935042343786426e-05
0.00012262946517128183
0.00029623971923399637
0.0004615828183413437
0.0006324373540856024
0.0008832077210650791
0.0011863367360952157
0.0012910540321965354
0.0008639176928358884
-0.0002190796063172357
-0.0016162287937743196
-0.0022610668802929734
-0.002167372457465477
-0.0019358921187151907
-0.001765037582970932
-0.0015941830472266732
-0.0013709698634317546
-0.0007151089036392773
-0.00048362856488899143
-0.0003348197756923787
-0.00023561391622797047
-0.00018876670481422206
-0.00014743093003738526
-0.00011160659189746003
-8.956084534981374e-05
-6.751509880216745e-05
-4.2713633936065354e-05
-1.240073243305171e-05
4.133577477683014e-06
1.2400732433050376e-05
2.066788738841773e-05
3.720219729915245e-05
5.098078889143139e-05
6.200366216525454e-05
7.02708171206219e-05
7.578225375753347e-05
8.404940871290084e-05
9.782800030517979e-05
0.00010885087357900291
0.00011436231021591448
0.00011436231021591448
0.00012262946517128183
0.00013916377508201656
0.00015018664835583973
0.00015845380331120705
0.00016396523994811866
0.000172232394903486
0.00018049954985885336
0.00019978957808804387
0.00021632388799877858
0.00022459104295414594
0.00023561391622796914
0.0002549039444571596
0.0002769496910048059
0.0002934840009155406
0.00030450687418936376
0.0003127740291447311
0.00033206405737392166
0.0003596212405584795
0.0003733998321507585
0.000392689860379949
0.0004064684519722279
0.00043126991683832994
0.0004588271000228878
0.00048362856488898997
0.0005001628747997245
0.0005111857480735478
0.0005249643396658268
0.0005442543678950173
0.000560788677805752
0.0005718115510795751
0.0005745672693980309
0.0005745672693980309
0.0005828344243533982
0.0005911015793087656
0.0005883458609903097
0.0005745672693980309
0.0005635443961242077
0.0005552772411688404
0.0005414986495765614
0.0005139414663920035
0.0004726056916151668
0.00042300276188296266
0.00037064411383230263
0.0003182854657816428
0.0002576596627756154
0.00013916377508201656
8.404940871290084e-05
4.271363393606403e-05
9.64501411459459e-06
-2.6179324025330647e-05
-5.6492225528344285e-05
-7.85379720759906e-05
-9.231656366826955e-05
-0.00010058371862363688
-0.00011160659189746003
-0.00012538518348973897
-0.0001336523384451063
-0.0001364080567635621
-0.0001364080567635621
-0.0001391637750820179
-0.00014467521171892948
-0.00015294236667429682
-0.00015569808499275262
-0.00014743093003738526
-0.00014467521171892948
-0.00015569808499275262
-0.00016672095826657574
-0.00016947667658503157
-0.00016396523994811996
-0.0001612095216296642
-0.00016672095826657574
-0.00017223239490348733
-0.00016672095826657574
-0.00015569808499275262
-0.000150186648355841
-0.00015569808499275262
-0.00015569808499275262
-0.000150186648355841
-0.0001391637750820179
-0.0001336523384451063
-0.0001364080567635621
-0.00014191949340047367
-0.00014191949340047367
-0.0001364080567635621
-0.00012814090180819475
-0.00012814090180819475
-0.0001336523384451063
-0.0001364080567635621
-0.00012814090180819475
-0.0001226294651712832
-0.0001198737468528274
-0.00012814090180819475
-0.00013089662012665053
-0.00012538518348973897
-0.0001226294651712832
-0.0001226294651712832
-0.00013089662012665053
-0.0001391637750820179
-0.00014191949340047367
-0.0001364080567635621
-0.0001336523384451063
-0.0001391637750820179
-0.00014191949340047367
-0.00014191949340047367
-0.0001391637750820179
-0.0001336523384451063
-0.0001364080567635621
-0.00014191949340047367
-0.00014743093003738526
-0.00014191949340047367
-0.0001391637750820179
-0.00014191949340047367
-0.000150186648355841
-0.00015294236667429682
-0.00014467521171892948
-0.00014467521171892948
-0.00015294236667429682
-0.0001584538033112084
-0.00015569808499275262
-0.000150186648355841
-0.00014743093003738526
-0.000150186648355841
-0.000150186648355841
-0.0001364080567635621
-0.0001198737468528274
-0.00010333943694209268
-9.507228198672531e-05
-0.00010609515526054846
-8.956084534981374e-05
-6.475938048371164e-05
-4.8225070572976926e-05
-4.2713633936065354e-05
-4.5469352254521147e-05
-5.3736507209888505e-05
-6.751509880216745e-05
-7.85379720759906e-05
-8.404940871290214e-05
-8.404940871290214e-05
-8.680512703135793e-05
-8.129369039444639e-05
-8.404940871290214e-05
-9.78280003051811e-05
-0.0001226294651712832
-0.00014191949340047367
-0.00015294236667429682
-0.000150186648355841
-0.00014743093003738526
-0.00015569808499275262
-0.00016396523994811996
-0.00016672095826657574
-0.0001584538033112084
-0.00015569808499275262
-0.0001612095216296642
-0.0001612095216296642
-0.0001612095216296642
-0.0001584538033112084
-0.00015569808499275262
-0.00015294236667429682
-0.00011436231021591582
1.3778591592272275e-06
0.0001694766765850302
0.00034584264896620056
0.000508430029755092
0.000676528847180895
0.000896986312657358
0.0010871308766308072
0.0009521006790264736
0.0002852168459601733
-0.0009410778057526519
-0.0021508381475547427
-0.0025283715571831848
-0.0023464941481651028
-0.002087456626230259
-0.0018807777523460753
-0.0016823660334172581
-0.0014288399481193262
-0.0010898865949492643
-0.0007399103685053794
-0.0004946514381628143
-0.0003348197756923787
-0.00023285819790951464
-0.0001391637750820179
-0.00010609515526054846
-8.129369039444639e-05
-5.9247943846800084e-05
-3.169076066224221e-05
-6.889295796140132e-06
4.133577477683014e-06
1.2400732433050376e-05
2.066788738841773e-05
3.720219729915245e-05
5.649222552834297e-05
7.02708171206219e-05
7.578225375753347e-05
7.853797207598924e-05
8.956084534981241e-05
0.00010333943694209132
0.00011436231021591448
0.00011987374685282605
0.0001253851834897376
0.00013640805676356078
0.00015018664835583973
0.00016672095826657444
0.00017774383154039756
0.00018049954985885336
0.00019427814145113231
0.000210812451361867
0.00023010247959105753
0.00024112535286488067
0.0002493925078202481
0.000263171099412527
0.0002824611276417174
0.0003072625925078196
0.00032379690241855427
0.0003348197756923775
0.00035135408560311223
0.00037615555046921414
0.0004009570153353164
0.00042575848020141833
0.0004422927901121532
0.0004533156633859763
0.0004781171282520784
0.0005111857480735478
0.0005442543678950173
0.000560788677805752
0.0005745672693980309
0.0005966130159456772
0.0006186587624933234
0.000637948790722514
0.0006462159456778814
0.0006434602273594254
0.0006434602273594254
0.0006544831006332488
0.0006572388189517045
0.0006462159456778814
0.0006324373540856024
0.0006186587624933234
0.0006076358892195001
0.000585590142671854
0.0005525215228503846
0.0005001628747997245
0.0004450485084306089
0.0003816669871061258
0.00032104118410009855
0.0002549039444571596
0.00018601098649576498
0.00012262946517128183
7.578225375753347e-05
4.271363393606403e-05
-2.8935042343786426e-05
-5.6492225528344285e-05
-7.85379720759906e-05
-8.956084534981374e-05
-9.231656366826955e-05
-0.00010333943694209268
-0.00011436231021591582
-0.0001226294651712832
-0.0001198737468528274
-0.0001171180285343716
-0.0001198737468528274
-0.00013089662012665053
-0.0001336523384451063
-0.00012814090180819475
-0.00012814090180819475
-0.00013089662012665053
-0.0001364080567635621
-0.0001364080567635621
-0.00013089662012665053
-0.00012814090180819475
-0.00012814090180819475
-0.00013089662012665053
-0.0001364080567635621
-0.0001336523384451063
-0.00012814090180819475
-0.0001226294651712832
-0.00012814090180819475
-0.00013089662012665053
-0.00012814090180819475
-0.0001198737468528274
-0.00011160659189746003
-0.00011436231021591582
-0.0001171180285343716
-0.00010885087357900426
-0.00010058371862363688
-8.956084534981374e-05
-8.956084534981374e-05
-9.507228198672531e-05
-0.00010333943694209268
-9.78280003051811e-05
-8.680512703135793e-05
-8.680512703135793e-05
-9.507228198672531e-05
-9.78280003051811e-05
-9.507228198672531e-05
-8.956084534981374e-05
-9.231656366826955e-05
-9.78280003051811e-05
-0.00010609515526054846
-0.00010333943694209268
-9.78280003051811e-05
-9.507228198672531e-05
-9.78280003051811e-05
-0.00010333943694209268
-0.00010609515526054846
-9.78280003051811e-05
-8.956084534981374e-05
-9.507228198672531e-05
-0.00010333943694209268
-0.00010609515526054846
-0.00010333943694209268
-9.78280003051811e-05
-0.00010333943694209268
-0.00010885087357900426
-0.00010885087357900426
-0.00010609515526054846
-0.00010333943694209268
-0.00010333943694209268
-0.00011436231021591582
-0.00010885087357900426
-0.00010333943694209268
-9.78280003051811e-05
-9.507228198672531e-05
-8.680512703135793e-05
-7.57822537575348e-05
-5.9247943846800084e-05
-4.8225070572976926e-05
-4.8225070572976926e-05
-3.4446478980697995e-05
-1.7912169069963278e-05
-4.133577477684346e-06
6.8892957961388014e-06
4.133577477683014e-06
-1.240073243305171e-05
-3.4446478980697995e-05
-4.2713633936065354e-05
-3.995791561760957e-05
-4.2713633936065354e-05
-4.5469352254521147e-05
-4.2713633936065354e-05
-4.5469352254521147e-05
-5.6492225528344285e-05
-7.57822537575348e-05
-9.78280003051811e-05
-0.00011436231021591582
-0.0001171180285343716
-0.00011160659189746003
-0.00011160659189746003
-0.0001198737468528274
-0.0001226294651712832
-0.0001198737468528274
-0.00010609515526054846
-0.00010058371862363688
-0.00010333943694209268
-0.00011160659189746003
-0.00011160659189746003
-0.00010058371862363688
-8.680512703135793e-05
-3.169076066224221e-05
8.956084534981241e-05
0.00026041538109407124
0.0004395370717936973
0.0006131473258564118
0.0008088033264667726
0.0010540622568093376
0.001224916792553597
0.0010265050736247801
0.0002879725642786291
-0.0009658792706187539
-0.0020516322880903336
-0.0023051583733882668
-0.0021122580910963615
-0.0019000677805752653
-0.0017044117799649048
-0.0014867100328068976
-0.0011890924544136726
-0.0008170704814221414
-0.0005029185931181816
-0.0003155297474631883
-0.0001997895780880452
-0.000150186648355841
-0.00011436231021591582
-7.57822537575348e-05
-3.995791561760957e-05
-1.7912169069963278e-05
-1.377859159228559e-06
1.2400732433050376e-05
5.373650720988717e-05
6.475938048371032e-05
6.751509880216611e-05
7.02708171206219e-05
8.129369039444505e-05
9.507228198672396e-05
0.00010609515526054714
0.00010885087357900291
0.00010885087357900291
0.00012262946517128183
0.00013640805676356078
0.00014743093003738393
0.00015018664835583973
0.0001556980849927513
0.00016120952162966288
0.00017774383154039756
0.00019152242313267648
0.00019427814145113231
0.0001970338597695881
0.00020530101472495543
0.0002218353246356902
0.00024112535286488067
0.0002549039444571596
0.00026041538109407124
0.0002741939726863501
0.00029623971923399637
0.000315529747463187
0.0003293083390554659
0.000340331212329289
0.0003568655222400236
0.0003816669871061258
0.0004064684519722279
0.00042024704356450677
0.00043126991683832994
0.0004505599450675205
0.00047536140993362247
0.0005056743114366363
0.0005249643396658268
0.0005332314946211942
0.000547010086213473
0.000560788677805752
0.0005773229877164866
0.000585590142671854
0.0005828344243533982
0.0005828344243533982
0.000585590142671854
0.0005911015793087656
0.0005911015793087656
0.0005773229877164866
0.0005635443961242077
0.0005497658045319286
0.0005359872129396498
0.0005111857480735478
0.00047536140993362247
0.00042024704356450677
0.000365132677195391
0.000315529747463187
0.000263171099412527
0.00020805673304341124
0.00015018664835583973
9.782800030517979e-05
6.751509880216611e-05
4.546935225451981e-05
2.066788738841773e-05
-6.889295796140132e-06
-2.8935042343786426e-05
-3.995791561760957e-05
-4.2713633936065354e-05
-6.200366216525588e-05
-7.027081712062322e-05
-7.302653543907902e-05
-7.027081712062322e-05
-7.027081712062322e-05
-7.57822537575348e-05
-8.680512703135793e-05
-8.956084534981374e-05
-8.404940871290214e-05
-7.85379720759906e-05
-8.680512703135793e-05
-9.507228198672531e-05
-9.78280003051811e-05
-9.507228198672531e-05
-9.231656366826955e-05
-9.507228198672531e-05
-0.00010333943694209268
-0.00010885087357900426
-0.00010058371862363688
-9.231656366826955e-05
-8.680512703135793e-05
-9.231656366826955e-05
-9.507228198672531e-05
-8.956084534981374e-05
-8.129369039444639e-05
-7.85379720759906e-05
-8.129369039444639e-05
-8.404940871290214e-05
-8.129369039444639e-05
-7.302653543907902e-05
-6.475938048371164e-05
-6.475938048371164e-05
-7.027081712062322e-05
-7.302653543907902e-05
-6.751509880216745e-05
-5.6492225528344285e-05
-6.200366216525588e-05
-6.751509880216745e-05
-6.751509880216745e-05
-6.200366216525588e-05
-5.9247943846800084e-05
-5.6492225528344285e-05
-6.475938048371164e-05
-6.751509880216745e-05
-6.475938048371164e-05
-5.9247943846800084e-05
-5.9247943846800084e-05
-6.751509880216745e-05
-7.302653543907902e-05
-6.751509880216745e-05
-6.475938048371164e-05
-6.475938048371164e-05
-7.027081712062322e-05
-7.85379720759906e-05
-7.85379720759906e-05
-7.302653543907902e-05
-6.751509880216745e-05
-6.751509880216745e-05
-7.302653543907902e-05
-7.57822537575348e-05
-7.302653543907902e-05
-7.027081712062322e-05
-7.027081712062322e-05
-7.57822537575348e-05
-8.129369039444639e-05
-7.57822537575348e-05
-7.027081712062322e-05
-6.751509880216745e-05
-7.85379720759906e-05
-7.57822537575348e-05
-7.302653543907902e-05
-7.302653543907902e-05
-7.85379720759906e-05
-8.404940871290214e-05
-7.85379720759906e-05
-7.027081712062322e-05
-7.027081712062322e-05
-7.302653543907902e-05
-6.200366216525588e-05
-5.3736507209888505e-05
-3.720219729915378e-05
-2.342360570687485e-05
-2.342360570687485e-05
-1.5156450751507488e-05
4.133577477683014e-06
1.7912169069961946e-05
2.8935042343785094e-05
3.444647898069667e-05
2.3423605706873515e-05
1.3778591592272275e-06
-1.240073243305171e-05
-1.7912169069963278e-05
-2.342360570687485e-05
-2.6179324025330647e-05
-2.342360570687485e-05
-1.7912169069963278e-05
-2.342360570687485e-05
-4.2713633936065354e-05
-6.751509880216745e-05
-8.956084534981374e-05
-9.507228198672531e-05
-8.404940871290214e-05
-8.129369039444639e-05
-8.680512703135793e-05
-9.231656366826955e-05
-9.231656366826955e-05
-8.129369039444639e-05
-7.57822537575348e-05
-7.85379720759906e-05
-8.404940871290214e-05
-8.404940871290214e-05
-7.85379720759906e-05
-7.85379720759906e-05
-4.5469352254521147e-05
4.546935225451981e-05
0.00018601098649576498
0.00036788839551384685
0.000547010086213473
0.0007316432135500107
0.0009934364538033101
0.001293809750514991
0.0013957713282978553
0.0009658792706187528
-0.00010609515526054846
-0.0014756871595330745
-0.0021150138094148166
-0.0020406094148165107
-0.0018449534142061495
-0.0016575645685511565
-0.0014481299763485164
-0.0011670467078660266
-0.0008032918898298626
-0.0004891400015259028
-0.0003045068741893651
-0.00019427814145113364
-0.000150186648355841
-7.85379720759906e-05
-4.2713633936065354e-05
-2.066788738841907e-05
-4.133577477684346e-06
9.64501411459459e-06
2.8935042343785094e-05
5.098078889143139e-05
6.200366216525454e-05
6.475938048371032e-05
6.751509880216611e-05
8.129369039444505e-05
9.782800030517979e-05
0.00010333943694209132
0.00010333943694209132
0.00010333943694209132
0.00011436231021591448
0.00013089662012664922
0.00013916377508201656
0.00013916377508201656
0.00013916377508201656
0.00015018664835583973
0.00016120952162966288
0.000172232394903486
0.00018049954985885336
0.00018601098649576498
0.00019427814145113231
0.000210812451361867
0.00022734676127260172
0.00023561391622796914
0.00024112535286488067
0.0002493925078202481
0.0002686825360494386
0.0002852168459601733
0.0002989954375524522
0.0003072625925078196
0.00032104118410009855
0.000340331212329289
0.000365132677195391
0.00037891126878767
0.00038993414206149314
0.0004064684519722279
0.00042851419851987416
0.0004533156633859763
0.000469849973296711
0.0004808728465705341
0.0004891400015259016
0.0005029185931181804
0.0005222086213473709
0.0005332314946211942
0.0005387429312581057
0.0005387429312581057
0.0005442543678950173
0.000547010086213473
0.000547010086213473
0.0005387429312581057
0.0005277200579842825
0.0005139414663920035
0.000508430029755092
0.0004974071564812689
0.00047536140993362247
0.0004340256351567857
0.00038717842374303736
0.000340331212329289
0.00029623971923399637
0.00024388107118333642
0.00018876670481422076
0.00013365233844510492
9.23165636682682e-05
6.475938048371032e-05
9.64501411459459e-06
-1.7912169069963278e-05
-3.169076066224221e-05
-3.720219729915378e-05
-4.2713633936065354e-05
-5.3736507209888505e-05
-6.475938048371164e-05
-7.027081712062322e-05
-6.751509880216745e-05
-6.200366216525588e-05
-6.751509880216745e-05
-7.85379720759906e-05
-8.404940871290214e-05
-7.85379720759906e-05
-7.302653543907902e-05
-7.302653543907902e-05
-8.404940871290214e-05
-8.680512703135793e-05
-8.404940871290214e-05
-8.129369039444639e-05
-8.129369039444639e-05
-8.680512703135793e-05
-9.231656366826955e-05
-8.956084534981374e-05
-8.404940871290214e-05
-8.129369039444639e-05
-8.404940871290214e-05
-8.956084534981374e-05
-9.231656366826955e-05
-8.680512703135793e-05
-7.85379720759906e-05
-8.129369039444639e-05
-8.680512703135793e-05
-8.956084534981374e-05
-8.680512703135793e-05
-8.129369039444639e-05
-7.85379720759906e-05
-8.404940871290214e-05
-8.404940871290214e-05
-7.85379720759906e-05
-7.302653543907902e-05
-7.027081712062322e-05
-7.57822537575348e-05
-8.129369039444639e-05
-7.57822537575348e-05
-6.751509880216745e-05
-6.751509880216745e-05
-7.027081712062322e-05
-7.302653543907902e-05
-7.302653543907902e-05
-6.475938048371164e-05
-6.200366216525588e-05
-7.027081712062322e-05
-7.85379720759906e-05
-7.85379720759906e-05
-7.57822537575348e-05
-7.027081712062322e-05
-7.302653543907902e-05
-7.85379720759906e-05
-8.129369039444639e-05
-8.129369039444639e-05
-7.57822537575348e-05
-7.85379720759906e-05
-8.680512703135793e-05
-8.680512703135793e-05
-8.129369039444639e-05
-7.57822537575348e-05
-7.302653543907902e-05
-8.404940871290214e-05
-7.85379720759906e-05
-7.302653543907902e-05
-7.302653543907902e-05
-8.129369039444639e-05
-9.231656366826955e-05
-8.956084534981374e-05
-8.129369039444639e-05
-7.85379720759906e-05
-8.404940871290214e-05
-9.507228198672531e-05
-9.507228198672531e-05
-8.680512703135793e-05
-8.129369039444639e-05
-8.680512703135793e-05
-9.231656366826955e-05
-9.231656366826955e-05
-8.404940871290214e-05
-7.85379720759906e-05
-8.129369039444639e-05
-7.57822537575348e-05
-6.751509880216745e-05
-5.6492225528344285e-05
-4.5469352254521147e-05
-4.5469352254521147e-05
-3.4446478980697995e-05
-1.5156450751507488e-05
4.133577477683014e-06
2.066788738841773e-05
2.6179324025329308e-05
1.7912169069961946e-05
-4.133577477684346e-06
-2.342360570687485e-05
-2.6179324025330647e-05
-2.8935042343786426e-05
-3.4446478980697995e-05
-3.169076066224221e-05
-2.8935042343786426e-05
-3.4446478980697995e-05
-5.098078889143272e-05
-7.302653543907902e-05
-9.507228198672531e-05
-0.00010333943694209268
-9.231656366826955e-05
-8.680512703135793e-05
-9.231656366826955e-05
-0.00010058371862363688
-0.00010058371862363688
-9.231656366826955e-05
-8.404940871290214e-05
-8.404940871290214e-05
-9.231656366826955e-05
-9.507228198672531e-05
-9.231656366826955e-05
-8.680512703135793e-05
-5.3736507209888505e-05
3.169076066224089e-05
0.0001694766765850302
0.0003430869306477448
0.0005222086213473709
0.0007151089036392759
0.0009879250171663987
0.0013103440604257258
0.0014591528496223384
0.001089886594949263
4.82250705729756e-05
-0.0013489241168841083
-0.002024075104905776
-0.0017925947661554897
-0.0016189845120927755
-0.0014288399481193262
-0.0011780695811398495
-0.0008280933546959645
-0.0005166971847104609
-0.0003293083390554673
-0.00020530101472495681
-0.000150186648355841
-0.00012538518348973897
-9.231656366826955e-05
-5.6492225528344285e-05
-3.169076066224221e-05
-1.240073243305171e-05
1.3778591592272275e-06
1.7912169069961946e-05
3.9957915617608246e-05
5.373650720988717e-05
5.373650720988717e-05
5.373650720988717e-05
6.475938048371032e-05
7.853797207598924e-05
9.23165636682682e-05
9.507228198672396e-05
9.507228198672396e-05
0.00010333943694209132
0.00011711802853437029
0.00012814090180819342
0.00013089662012664922
0.00013365233844510492
0.00013916377508201656
0.00015294236667429551
0.0001694766765850302
0.00017774383154039756
0.00018049954985885336
0.00018601098649576498
0.00019978957808804387
0.0002190796063172344
0.00023285819790951333
0.0002383696345464249
0.00024112535286488067
0.00026041538109407124
0.0002824611276417174
0.000301751155870908
0.0003127740291447311
0.00032104118410009855
0.0003375754940108332
0.00035410980392156795
0.0003733998321507585
0.00038717842374303736
0.0004009570153353164
0.00041749132524605104
0.0004395370717936973
0.000456071381704432
0.000469849973296711
0.0004808728465705341
0.0004946514381628131
0.0005111857480735478
0.0005249643396658268
0.0005332314946211942
0.0005304757763027383
0.0005277200579842825
0.0005359872129396498
0.0005414986495765614
0.0005442543678950173
0.0005304757763027383
0.0005194529030289152
0.000508430029755092
0.00047536140993362247
0.0004367813534752416
0.00038993414206149314
0.0003430869306477448
0.0002989954375524522
0.0002493925078202481
0.0001970338597695881
0.00014467521171892812
0.00010058371862363556
7.578225375753347e-05
4.82250705729756e-05
2.066788738841773e-05
-4.133577477684346e-06
-2.342360570687485e-05
-2.8935042343786426e-05
-3.4446478980697995e-05
-4.5469352254521147e-05
-5.3736507209888505e-05
-6.200366216525588e-05
-6.200366216525588e-05
-5.9247943846800084e-05
-6.200366216525588e-05
-7.027081712062322e-05
-7.85379720759906e-05
-7.57822537575348e-05
-6.751509880216745e-05
-6.751509880216745e-05
-7.57822537575348e-05
-8.404940871290214e-05
-8.956084534981374e-05
-8.404940871290214e-05
-8.129369039444639e-05
-8.404940871290214e-05
-8.956084534981374e-05
-8.680512703135793e-05
-7.85379720759906e-05
-7.302653543907902e-05
-7.85379720759906e-05
-8.129369039444639e-05
-7.85379720759906e-05
-7.302653543907902e-05
-6.200366216525588e-05
-6.475938048371164e-05
-7.027081712062322e-05
-7.302653543907902e-05
-6.751509880216745e-05
-5.6492225528344285e-05
-5.3736507209888505e-05
-6.200366216525588e-05
-6.475938048371164e-05
-6.200366216525588e-05
-5.6492225528344285e-05
-5.3736507209888505e-05
-5.6492225528344285e-05
-5.9247943846800084e-05
-5.6492225528344285e-05
-5.3736507209888505e-05
-5.098078889143272e-05
-4.8225070572976926e-05
-5.3736507209888505e-05
-5.9247943846800084e-05
-5.6492225528344285e-05
-4.8225070572976926e-05
-5.3736507209888505e-05
-6.200366216525588e-05
-6.200366216525588e-05
-5.9247943846800084e-05
-5.9247943846800084e-05
-6.475938048371164e-05
-7.302653543907902e-05
-7.027081712062322e-05
-6.751509880216745e-05
-7.027081712062322e-05
-7.302653543907902e-05
-7.85379720759906e-05
-7.85379720759906e-05
-7.85379720759906e-05
-7.57822537575348e-05
-8.129369039444639e-05
-8.129369039444639e-05
-8.129369039444639e-05
-7.85379720759906e-05
-7.027081712062322e-05
-7.302653543907902e-05
-8.404940871290214e-05
-8.680512703135793e-05
-8.129369039444639e-05
-7.302653543907902e-05
-7.85379720759906e-05
-8.404940871290214e-05
-8.680512703135793e-05
-7.85379720759906e-05
-7.027081712062322e-05
-7.57822537575348e-05
-8.129369039444639e-05
-7.85379720759906e-05
-6.200366216525588e-05
-4.8225070572976926e-05
-3.720219729915378e-05
-3.995791561760957e-05
-4.5469352254521147e-05
-2.066788738841907e-05
1.2400732433050376e-05
2.8935042343785094e-05
3.169076066224089e-05
2.6179324025329308e-05
2.3423605706873515e-05
1.7912169069961946e-05
1.3778591592272275e-06
-1.5156450751507488e-05
-2.342360570687485e-05
-2.066788738841907e-05
-6.889295796140132e-06
-6.889295796140132e-06
-2.6179324025330647e-05
-5.098078889143272e-05
-7.027081712062322e-05
-7.85379720759906e-05
-7.85379720759906e-05
-7.57822537575348e-05
-8.404940871290214e-05
-8.680512703135793e-05
-7.85379720759906e-05
-7.027081712062322e-05
-6.751509880216745e-05
-7.302653543907902e-05
-7.85379720759906e-05
-7.85379720759906e-05
-7.302653543907902e-05
-7.027081712062322e-05
-7.302653543907902e-05
-4.2713633936065354e-05
6.200366216525454e-05
0.0002190796063172344
0.000392689860379949
0.0005552772411688404
0.0007481775234607456
0.0013930156099793995
0.0014563971313038828
0.0009438335240711064
-0.0002604153810940725
-0.0015666258640421155
-0.002004785076676585
-0.0018697548790722524
-0.0016961446250095377
-0.001547335835812925
-0.001362702708476387
-0.0010843751583123526
-0.000720620340276189
-0.00044504850843061025
-0.00029072828259708617
-0.00018601098649576628
-0.0001364080567635621
-9.78280003051811e-05
-6.475938048371164e-05
-4.2713633936065354e-05
-2.342360570687485e-05
4.133577477683014e-06
2.6179324025329308e-05
4.271363393606403e-05
5.098078889143139e-05
5.373650720988717e-05
6.751509880216611e-05
8.129369039444505e-05
9.782800030517979e-05
0.00010333943694209132
0.00010609515526054714
0.00010885087357900291
0.00011436231021591448
0.00012262946517128183
0.00013365233844510492
0.00013916377508201656
0.00014191949340047234
0.00015294236667429551
0.0001694766765850302
0.00017774383154039756
0.00018049954985885336
0.00018601098649576498
0.0001970338597695881
0.000210812451361867
0.00022459104295414594
0.00023285819790951333
0.00023561391622796914
0.0002493925078202481
0.00027143825436789435
0.0002879725642786291
0.0002934840009155406
0.0002989954375524522
0.000315529747463187
0.000340331212329289
0.0003568655222400236
0.00037064411383230263
0.0003816669871061258
0.0003982012970168605
0.00042575848020141833
0.0004478042267490647
0.0004643385366597993
0.0004726056916151668
0.00048362856488898997
0.0005001628747997245
0.0005222086213473709
0.0005359872129396498
0.0005387429312581057
0.0005442543678950173
0.0005497658045319286
0.0005635443961242077
0.0005497658045319286
0.0005359872129396498
0.0005359872129396498
0.0005359872129396498
0.0005249643396658268
0.0004974071564812689
0.0004588271000228878
0.00041749132524605104
0.0003733998321507585
0.00032379690241855427
0.00026592681773098274
0.00020805673304341124
0.00015845380331120705
0.00011711802853437029
8.404940871290084e-05
4.82250705729756e-05
6.8892957961388014e-06
-2.066788738841907e-05
-3.4446478980697995e-05
-4.2713633936065354e-05
-5.6492225528344285e-05
-7.302653543907902e-05
-8.680512703135793e-05
-8.956084534981374e-05
-8.956084534981374e-05
-8.956084534981374e-05
-9.78280003051811e-05
-0.00010885087357900426
-0.00011160659189746003
-0.00010885087357900426
-0.00010333943694209268
-0.00010885087357900426
-0.0001171180285343716
-0.0001198737468528274
-0.0001171180285343716
-0.00011436231021591582
-0.0001171180285343716
-0.0001226294651712832
-0.00012814090180819475
-0.0001226294651712832
-0.00010885087357900426
-0.00010885087357900426
-0.00011436231021591582
-0.0001171180285343716
-0.00011160659189746003
-0.00010885087357900426
-0.00010885087357900426
-0.0001171180285343716
-0.0001198737468528274
-0.0001171180285343716
-0.00010609515526054846
-0.00010058371862363688
-0.00010058371862363688
-0.00010609515526054846
-0.00010058371862363688
-8.956084534981374e-05
-8.956084534981374e-05
-9.231656366826955e-05
-0.00010058371862363688
-0.00010058371862363688
-9.507228198672531e-05
-8.680512703135793e-05
-8.680512703135793e-05
-8.956084534981374e-05
-9.231656366826955e-05
-8.956084534981374e-05
-8.680512703135793e-05
-9.78280003051811e-05
-0.00010058371862363688
-9.78280003051811e-05
-9.231656366826955e-05
-9.507228198672531e-05
-0.00010609515526054846
-0.00011160659189746003
-0.00010885087357900426
-0.00010333943694209268
-9.78280003051811e-05
-0.00010609515526054846
-0.00011436231021591582
-0.00011436231021591582
-0.00010609515526054846
-0.00010058371862363688
-0.00010609515526054846
-0.00010885087357900426
-0.00010609515526054846
-0.00010333943694209268
-0.00010333943694209268
-0.00010885087357900426
-0.00010885087357900426
-9.78280003051811e-05
-8.129369039444639e-05
-6.751509880216745e-05
-6.475938048371164e-05
-7.027081712062322e-05
-6.751509880216745e-05
-3.995791561760957e-05
-1.240073243305171e-05
4.133577477683014e-06
6.8892957961388014e-06
-1.377859159228559e-06
-1.5156450751507488e-05
-2.8935042343786426e-05
-3.995791561760957e-05
-4.8225070572976926e-05
-5.3736507209888505e-05
-4.5469352254521147e-05
-3.995791561760957e-05
-4.8225070572976926e-05
-7.302653543907902e-05
-0.00010058371862363688
-0.00011160659189746003
-0.00011160659189746003
-0.00010885087357900426
-0.00011436231021591582
-0.00012538518348973897
-0.00013089662012665053
-0.0001226294651712832
-0.0001171180285343716
-0.0001198737468528274
-0.00012538518348973897
-0.00012814090180819475
-0.0001226294651712832
-0.00011436231021591582
-0.0001171180285343716
-0.00010333943694209268
-2.8935042343786426e-05
0.00011436231021591448
0.00029072828259708476
0.0004615828183413437
0.0006241701991302349
0.0008391162279697863
0.0011146880598153653
0.0012552296940566102
0.0009107649042496368
-5.6492225528344285e-05
-0.002296891218432899
-0.0023024026550698107
-0.0020516322880903336
-0.0018504648508430618
-0.001676854596780347
-0.0014563971313038841
-0.001164290989547571
-0.0008115590447852298
-0.0005359872129396513
-0.0003596212405584808
-0.00023561391622797047
-0.00016672095826657574
-0.00012538518348973897
-8.680512703135793e-05
-5.9247943846800084e-05
-3.720219729915378e-05
-9.64501411459592e-06
1.5156450751506162e-05
3.444647898069667e-05
4.271363393606403e-05
5.373650720988717e-05
7.02708171206219e-05
8.68051270313566e-05
0.00010058371862363556
0.00010609515526054714
0.00011160659189745871
0.00011711802853437029
0.00012814090180819342
0.00014191949340047234
0.00014743093003738393
0.00014743093003738393
0.0001556980849927513
0.00016672095826657444
0.00018876670481422076
0.00019978957808804387
0.00020254529640649968
0.000210812451361867
0.00023010247959105753
0.00024388107118333642
0.00026592681773098274
0.00027970540932326175
0.0002879725642786291
0.000301751155870908
0.00032379690241855427
0.0003430869306477448
0.00035410980392156795
0.00036788839551384685
0.00038717842374303736
0.00041197988860913943
0.0004422927901121532
0.0004615828183413437
0.00047536140993362247
0.0004974071564812689
0.0005277200579842825
0.0005552772411688404
0.0005773229877164866
0.0005938572976272215
0.0006103916075379561
0.0006351930724040583
0.0006572388189517045
0.0006710174105439835
0.0006710174105439835
0.0006710174105439835
0.000676528847180895
0.0006847960021362622
0.0006847960021362622
0.0006710174105439835
0.0006544831006332488
0.0006434602273594254
0.0006048801709010444
0.0005580329594872961
0.0005001628747997245
0.0004367813534752416
0.0003733998321507585
0.00030450687418936376
0.00023285819790951333
0.0001694766765850302
0.00011711802853437029
7.853797207598924e-05
4.271363393606403e-05
4.133577477683014e-06
-2.342360570687485e-05
-4.2713633936065354e-05
-5.6492225528344285e-05
-6.475938048371164e-05
-7.302653543907902e-05
-8.680512703135793e-05
-9.507228198672531e-05
-9.78280003051811e-05
-0.00010058371862363688
-0.00010333943694209268
-0.00011160659189746003
-0.0001198737468528274
-0.0001198737468528274
-0.00011436231021591582
-0.00011160659189746003
-0.0001198737468528274
-0.00012814090180819475
-0.00012538518348973897
-0.0001171180285343716
-0.0001171180285343716
-0.0001226294651712832
-0.0001336523384451063
-0.00013089662012665053
-0.0001226294651712832
-0.00011436231021591582
-0.00011160659189746003
-0.00011436231021591582
-0.00011436231021591582
-0.00010333943694209268
-9.507228198672531e-05
-9.507228198672531e-05
-0.00010058371862363688
-0.00010333943694209268
-9.231656366826955e-05
-8.129369039444639e-05
-8.404940871290214e-05
-8.956084534981374e-05
-9.231656366826955e-05
-8.680512703135793e-05
-7.85379720759906e-05
-7.85379720759906e-05
-8.129369039444639e-05
-8.680512703135793e-05
-8.680512703135793e-05
-8.680512703135793e-05
-8.680512703135793e-05
-8.956084534981374e-05
-9.231656366826955e-05
-9.231656366826955e-05
-9.231656366826955e-05
-9.231656366826955e-05
-9.507228198672531e-05
-0.00010333943694209268
-0.00010609515526054846
-0.00010333943694209268
-0.00010333943694209268
-0.00011160659189746003
-0.00010885087357900426
-0.00010333943694209268
-0.00010058371862363688
-0.00010333943694209268
-0.00010885087357900426
-0.00011160659189746003
-0.00010885087357900426
-0.00010609515526054846
-0.00010609515526054846
-0.00011436231021591582
-0.00010885087357900426
-9.507228198672531e-05
-7.85379720759906e-05
-6.751509880216745e-05
-5.9247943846800084e-05
-6.200366216525588e-05
-5.3736507209888505e-05
-2.8935042343786426e-05
-1.5156450751507488e-05
-6.889295796140132e-06
-4.133577477684346e-06
-4.133577477684346e-06
-1.240073243305171e-05
-2.6179324025330647e-05
-4.2713633936065354e-05
-5.6492225528344285e-05
-5.6492225528344285e-05
-4.5469352254521147e-05
-3.4446478980697995e-05
-4.8225070572976926e-05
-7.302653543907902e-05
-9.231656366826955e-05
-0.00010058371862363688
-0.00010333943694209268
-0.00010885087357900426
-0.0001171180285343716
-0.0001198737468528274
-0.0001171180285343716
-0.00010885087357900426
-0.00010885087357900426
-0.00011160659189746003
-0.0001171180285343716
-0.0001198737468528274
-0.0001171180285343716
-0.00011436231021591582
-0.00011436231021591582
-9.78280003051811e-05
-2.066788738841907e-05
0.00012814090180819342
0.0003072625925078196
0.00047536140993362247
0.0006324373540856024
0.0008225819180590517
0.001051306538490882
0.001125710933089188
0.0007261317769130989
-0.0002108124513618684
-0.0015308015259021903
-0.002374051331349661
-0.0024208985427634083
-0.002170128175783933
-0.0019496707103074694
-0.0017567704280155648
-0.0015280458075837343
-0.001222161074235142
-0.0008501391012436108
-0.0005442543678950186
-0.0002218353246356915
-0.000150186648355841
-0.00011160659189746003
-7.85379720759906e-05
-5.3736507209888505e-05
-2.8935042343786426e-05
1.3778591592272275e-06
2.8935042343785094e-05
4.271363393606403e-05
4.82250705729756e-05
5.649222552834297e-05
7.578225375753347e-05
9.23165636682682e-05
0.00010058371862363556
0.00010333943694209132
0.00010885087357900291
0.00011987374685282605
0.00013365233844510492
0.00014191949340047234
0.00014467521171892812
0.00014743093003738393
0.0001556980849927513
0.000172232394903486
0.00018876670481422076
0.0001970338597695881
0.00020254529640649968
0.000210812451361867
0.00023285819790951333
0.0002493925078202481
0.00026041538109407124
0.0002686825360494386
0.0002824611276417174
0.00030450687418936376
0.00032379690241855427
0.000340331212329289
0.00035135408560311223
0.00036788839551384685
0.00038993414206149314
0.00041473560692759526
0.0004340256351567857
0.0004478042267490647
0.0004643385366597993
0.0004891400015259016
0.0005166971847104594
0.0005414986495765614
0.0005580329594872961
0.0005718115510795751
0.0005911015793087656
0.0006186587624933234
0.000637948790722514
0.0006462159456778814
0.0006489716639963371
0.0006544831006332488
0.0006627502555886161
0.0006682616922255276
0.0006655059739070718
0.0006544831006332488
0.0006434602273594254
0.0006351930724040583
0.0006214144808117793
0.0005911015793087656
0.0005442543678950173
0.0004891400015259016
0.0004395370717936973
0.00037891126878767
0.0003127740291447311
0.00024663678950179223
0.00018601098649576498
0.00010058371862363556
6.200366216525454e-05
2.3423605706873515e-05
-4.133577477684346e-06
-2.066788738841907e-05
-3.169076066224221e-05
-4.2713633936065354e-05
-5.6492225528344285e-05
-7.027081712062322e-05
-7.57822537575348e-05
-7.302653543907902e-05
-7.302653543907902e-05
-7.85379720759906e-05
-8.956084534981374e-05
-9.231656366826955e-05
-8.680512703135793e-05
-8.404940871290214e-05
-8.956084534981374e-05
-9.78280003051811e-05
-0.00010333943694209268
-9.78280003051811e-05
-9.507228198672531e-05
-9.507228198672531e-05
-0.00010333943694209268
-0.00010885087357900426
-0.00010058371862363688
-9.231656366826955e-05
-9.231656366826955e-05
-9.507228198672531e-05
-0.00010058371862363688
-9.231656366826955e-05
-7.85379720759906e-05
-7.027081712062322e-05
-7.57822537575348e-05
-8.129369039444639e-05
-8.129369039444639e-05
-7.302653543907902e-05
-6.751509880216745e-05
-7.027081712062322e-05
-7.027081712062322e-05
-6.751509880216745e-05
-6.475938048371164e-05
-5.9247943846800084e-05
-5.6492225528344285e-05
-6.200366216525588e-05
-6.475938048371164e-05
-6.200366216525588e-05
-5.6492225528344285e-05
-5.3736507209888505e-05
-5.9247943846800084e-05
-6.751509880216745e-05
-6.751509880216745e-05
-6.200366216525588e-05
-5.6492225528344285e-05
-6.475938048371164e-05
-7.027081712062322e-05
-7.302653543907902e-05
-6.751509880216745e-05
-6.475938048371164e-05
-7.027081712062322e-05
-7.85379720759906e-05
-7.85379720759906e-05
-6.751509880216745e-05
-6.475938048371164e-05
-7.027081712062322e-05
-8.129369039444639e-05
-8.129369039444639e-05
-7.57822537575348e-05
-7.027081712062322e-05
-8.129369039444639e-05
-8.129369039444639e-05
-7.57822537575348e-05
-7.302653543907902e-05
-7.302653543907902e-05
-6.475938048371164e-05
-5.3736507209888505e-05
-4.5469352254521147e-05
-2.8935042343786426e-05
-2.066788738841907e-05
-1.5156450751507488e-05
-1.377859159228559e-06
6.8892957961388014e-06
2.066788738841773e-05
3.444647898069667e-05
2.8935042343785094e-05
9.64501411459459e-06
-9.64501411459592e-06
-1.7912169069963278e-05
-1.7912169069963278e-05
-2.066788738841907e-05
-1.7912169069963278e-05
-2.342360570687485e-05
-2.8935042343786426e-05
-4.2713633936065354e-05
-6.751509880216745e-05
-8.956084534981374e-05
-0.00010058371862363688
-9.231656366826955e-05
-8.404940871290214e-05
-8.680512703135793e-05
-9.507228198672531e-05
-9.78280003051811e-05
-9.231656366826955e-05
-8.680512703135793e-05
-8.680512703135793e-05
-9.231656366826955e-05
-9.78280003051811e-05
-9.78280003051811e-05
-9.231656366826955e-05
-7.302653543907902e-05
-6.889295796140132e-06
0.00012262946517128183
0.0002934840009155406
0.0004781171282520784
0.0006517273823147929
0.0008611619745174325
0.001125710933089188
0.0012993211871519031
0.0010623294117647053
0.0002493925078202481
-0.0010898865949492643
-0.0020791894712748915
-0.0022224868238345926
-0.0020185636682688644
-0.0018173962310215922
-0.0016079616388189524
-0.0013489241168841083
-0.0009906807354848563
-0.0006241701991302363
-0.00037615555046921565
-0.00023285819790951464
-0.00016672095826657574
-0.0001364080567635621
-9.78280003051811e-05
-5.6492225528344285e-05
-2.342360570687485e-05
-6.889295796140132e-06
2.066788738841773e-05
3.9957915617608246e-05
5.373650720988717e-05
6.200366216525454e-05
6.475938048371032e-05
6.751509880216611e-05
8.404940871290084e-05
9.507228198672396e-05
0.00010058371862363556
0.00010058371862363556
0.00010333943694209132
0.00011711802853437029
0.00013089662012664922
0.00013916377508201656
0.00013916377508201656
0.00014467521171892812
0.00015845380331120705
0.00017498811322194178
0.0001832552681773092
0.00018876670481422076
0.00019152242313267648
0.00020805673304341124
0.00022734676127260172
0.00024388107118333642
0.00025214822613870384
0.0002576596627756154
0.0002741939726863501
0.00029072828259708476
0.0003127740291447311
0.00032655262073701005
0.0003375754940108332
0.00035410980392156795
0.00037891126878767
0.0004009570153353164
0.00041197988860913943
0.00042024704356450677
0.0004395370717936973
0.0004670942549782553
0.0004891400015259016
0.0005029185931181804
0.0005166971847104594
0.0005277200579842825
0.0005442543678950173
0.000560788677805752
0.0005690558327611192
0.0005718115510795751
0.0005690558327611192
0.0005690558327611192
0.0005690558327611192
0.0005663001144426635
0.0005580329594872961
0.0005442543678950173
0.0005304757763027383
0.0005139414663920035
0.0004891400015259016
0.0004478042267490647
0.0003982012970168605
0.0003430869306477448
0.00029072828259708476
0.00024388107118333642
0.00018876670481422076
0.00013365233844510492
9.23165636682682e-05
6.200366216525454e-05
3.9957915617608246e-05
1.2400732433050376e-05
-1.5156450751507488e-05
-3.4446478980697995e-05
-4.8225070572976926e-05
-5.3736507209888505e-05
-6.751509880216745e-05
-7.57822537575348e-05
-7.85379720759906e-05
-7.302653543907902e-05
-7.027081712062322e-05
-8.129369039444639e-05
-8.956084534981374e-05
-9.231656366826955e-05
-8.680512703135793e-05
-8.129369039444639e-05
-8.956084534981374e-05
-9.78280003051811e-05
-9.78280003051811e-05
-9.507228198672531e-05
-9.231656366826955e-05
-9.231656366826955e-05
-9.507228198672531e-05
-0.00010058371862363688
-9.507228198672531e-05
-8.956084534981374e-05
-9.507228198672531e-05
-0.00010058371862363688
-0.00010058371862363688
-9.507228198672531e-05
-8.680512703135793e-05
-8.680512703135793e-05
-9.231656366826955e-05
-9.78280003051811e-05
-9.78280003051811e-05
-8.956084534981374e-05
-8.404940871290214e-05
-8.404940871290214e-05
-8.680512703135793e-05
-8.129369039444639e-05
-7.57822537575348e-05
-7.027081712062322e-05
-7.57822537575348e-05
-8.404940871290214e-05
-8.129369039444639e-05
-7.302653543907902e-05
-7.027081712062322e-05
-7.027081712062322e-05
-7.57822537575348e-05
-7.85379720759906e-05
-7.85379720759906e-05
-7.027081712062322e-05
-7.027081712062322e-05
-7.85379720759906e-05
-8.404940871290214e-05
-8.129369039444639e-05
-7.85379720759906e-05
-7.57822537575348e-05
-8.404940871290214e-05
-9.231656366826955e-05
-9.231656366826955e-05
-8.404940871290214e-05
-8.129369039444639e-05
-8.129369039444639e-05
-8.680512703135793e-05
-8.956084534981374e-05
-8.129369039444639e-05
-7.85379720759906e-05
-8.404940871290214e-05
-9.231656366826955e-05
-9.231656366826955e-05
-8.680512703135793e-05
-8.956084534981374e-05
-9.78280003051811e-05
-9.78280003051811e-05
-9.231656366826955e-05
-8.680512703135793e-05
-8.680512703135793e-05
-9.507228198672531e-05
-8.956084534981374e-05
-7.57822537575348e-05
-6.200366216525588e-05
-5.098078889143272e-05
-5.3736507209888505e-05
-5.3736507209888505e-05
-2.8935042343786426e-05
-1.377859159228559e-06
9.64501411459459e-06
9.64501411459459e-06
4.133577477683014e-06
-1.377859159228559e-06
-1.5156450751507488e-05
-3.169076066224221e-05
-3.995791561760957e-05
-4.5469352254521147e-05
-4.2713633936065354e-05
-3.169076066224221e-05
-2.8935042343786426e-05
-5.3736507209888505e-05
-7.85379720759906e-05
-9.78280003051811e-05
-0.00010333943694209268
-9.78280003051811e-05
-0.00010058371862363688
-0.00010885087357900426
-0.00011436231021591582
-0.00011160659189746003
-0.00010333943694209268
-0.00010609515526054846
-0.00011436231021591582
-0.0001171180285343716
-0.0001171180285343716
-0.00011160659189746003
-0.00011160659189746003
-0.00010885087357900426
-6.475938048371164e-05
5.098078889143139e-05
0.000210812451361867
0.00038717842374303736
0.000547010086213473
0.0007481775234607456
0.001051306538490882
0.0013654584267948416
0.0013516798352025624
0.0007509332417792012
-0.0005194529030289164
-0.0017567704280155648
-0.0021039909361409937
-0.0019441592736705586
-0.0017733047379262996
-0.0016079616388189524
-0.0013985270466163123
-0.0010953980315861755
-0.0007261317769131007
-0.00046433853665980087
-0.00030726259250782084
-0.0002108124513618684
-0.00016947667658503157
-0.0001336523384451063
-0.00010058371862363688
-5.6492225528344285e-05
-3.720219729915378e-05
-1.240073243305171e-05
4.133577477683014e-06
9.64501411459459e-06
1.2400732433050376e-05
2.3423605706873515e-05
3.9957915617608246e-05
5.649222552834297e-05
6.200366216525454e-05
6.200366216525454e-05
6.475938048371032e-05
7.578225375753347e-05
9.507228198672396e-05
0.00010058371862363556
0.00010058371862363556
0.00010333943694209132
0.00011711802853437029
0.00013089662012664922
0.00014191949340047234
0.00014467521171892812
0.00014743093003738393
0.0001556980849927513
0.00017498811322194178
0.00018601098649576498
0.00019427814145113231
0.00020254529640649968
0.00021632388799877858
0.00023285819790951333
0.0002493925078202481
0.000263171099412527
0.0002741939726863501
0.0002852168459601733
0.0003072625925078196
0.0003293083390554659
0.00034584264896620056
0.00035410980392156795
0.00036788839551384685
0.000392689860379949
0.00041473560692759526
0.0004340256351567857
0.0004505599450675205
0.0004615828183413437
0.0004781171282520784
0.0004974071564812689
0.0005111857480735478
0.0005111857480735478
0.0005111857480735478
0.0005139414663920035
0.0005249643396658268
0.0005277200579842825
0.0005222086213473709
0.000508430029755092
0.0005056743114366363
0.0005056743114366363
0.0004918957198443572
0.0004643385366597993
0.00042575848020141833
0.0003844227054245816
0.0003430869306477448
0.0002989954375524522
0.00024112535286488067
0.00017774383154039756
0.00012814090180819342
8.956084534981241e-05
5.9247943846798756e-05
2.6179324025329308e-05
-6.889295796140132e-06
-3.169076066224221e-05
-5.9247943846800084e-05
-7.027081712062322e-05
-8.129369039444639e-05
-9.231656366826955e-05
-9.507228198672531e-05
-9.231656366826955e-05
-8.956084534981374e-05
-9.78280003051811e-05
-0.00010333943694209268
-0.00010609515526054846
-0.00010058371862363688
-9.78280003051811e-05
-0.00010333943694209268
-0.00011436231021591582
-0.0001171180285343716
-0.00011436231021591582
-0.00011160659189746003
-0.0001171180285343716
-0.0001198737468528274
-0.0001226294651712832
-0.0001171180285343716
-0.00010885087357900426
-0.00010885087357900426
-0.00011160659189746003
-0.00011160659189746003
-0.00010885087357900426
-0.00010333943694209268
-0.00010058371862363688
-0.00010333943694209268
-0.00010885087357900426
-0.00010333943694209268
-9.231656366826955e-05
-8.680512703135793e-05
-9.507228198672531e-05
-0.00010058371862363688
-9.78280003051811e-05
-8.956084534981374e-05
-8.680512703135793e-05
-8.956084534981374e-05
-9.231656366826955e-05
-9.231656366826955e-05
-8.680512703135793e-05
-8.129369039444639e-05
-8.404940871290214e-05
-9.231656366826955e-05
-9.78280003051811e-05
-9.231656366826955e-05
-8.680512703135793e-05
-8.680512703135793e-05
-9.507228198672531e-05
-9.78280003051811e-05
-9.507228198672531e-05
-9.231656366826955e-05
-8.956084534981374e-05
-9.507228198672531e-05
-0.00010333943694209268
-0.00010058371862363688
-9.231656366826955e-05
-9.231656366826955e-05
-9.78280003051811e-05
-0.00010333943694209268
-0.00010058371862363688
-9.78280003051811e-05
-9.231656366826955e-05
-9.78280003051811e-05
-0.00010333943694209268
-0.00010333943694209268
-0.00010058371862363688
-0.00010058371862363688
-0.00010885087357900426
-0.0001171180285343716
-0.00010609515526054846
-9.78280003051811e-05
-9.78280003051811e-05
-0.00010609515526054846
-0.00011160659189746003
-0.00010333943694209268
-9.78280003051811e-05
-0.00010058371862363688
-0.00010333943694209268
-9.231656366826955e-05
-8.129369039444639e-05
-7.027081712062322e-05
-6.200366216525588e-05
-6.200366216525588e-05
-5.3736507209888505e-05
-2.6179324025330647e-05
-4.133577477684346e-06
9.64501411459459e-06
9.64501411459459e-06
-4.133577477684346e-06
-2.066788738841907e-05
-3.169076066224221e-05
-3.995791561760957e-05
-4.5469352254521147e-05
-5.098078889143272e-05
-4.5469352254521147e-05
-4.8225070572976926e-05
-5.3736507209888505e-05
-7.302653543907902e-05
-0.00010058371862363688
-0.0001198737468528274
-0.0001171180285343716
-0.00010609515526054846
-0.00010609515526054846
-0.00011160659189746003
-0.0001171180285343716
-0.00011436231021591582
-0.00010885087357900426
-0.00010885087357900426
-0.00011436231021591582
-0.0001198737468528274
-0.0001198737468528274
-0.00011436231021591582
-0.00010885087357900426
-8.129369039444639e-05
9.64501411459459e-06
0.00015294236667429551
0.00032655262073701005
0.0004974071564812689
0.0006737731288624392
0.0009410778057526506
0.0012827868772411677
0.0014315956664377805
0.0010568179751277937
-4.133577477684346e-06
-0.0013902598916609454
-0.0020213193865873205
-0.0019496707103074694
-0.0017622818646524767
-0.0016079616388189524
-0.001431595666437782
-0.0011808252994583053
-0.0008363605096513318
-0.0005304757763027395
-0.00035410980392156926
-0.0001777438315403989
-0.00014467521171892948
-0.00010609515526054846
-7.57822537575348e-05
-5.9247943846800084e-05
-4.5469352254521147e-05
-2.6179324025330647e-05
-1.377859159228559e-06
1.7912169069961946e-05
2.8935042343785094e-05
2.8935042343785094e-05
3.720219729915245e-05
4.82250705729756e-05
5.9247943846798756e-05
6.475938048371032e-05
6.475938048371032e-05
6.751509880216611e-05
8.129369039444505e-05
8.956084534981241e-05
9.782800030517979e-05
0.00010058371862363556
0.00010333943694209132
0.00011711802853437029
0.00013365233844510492
0.00014191949340047234
0.00014743093003738393
0.00015018664835583973
0.00016672095826657444
0.0001832552681773092
0.00019427814145113231
0.00019978957808804387
0.00020530101472495543
0.00021632388799877858
0.00023285819790951333
0.0002549039444571596
0.00026592681773098274
0.0002741939726863501
0.0002879725642786291
0.00031001831082627527
0.00033206405737392166
0.00034584264896620056
0.00035410980392156795
0.00036788839551384685
0.000392689860379949
0.00042024704356450677
0.0004367813534752416
0.0004422927901121532
0.0004533156633859763
0.0004670942549782553
0.0004808728465705341
0.0004974071564812689
0.0005001628747997245
0.0005001628747997245
0.0005029185931181804
0.000508430029755092
0.0005056743114366363
0.0005029185931181804
0.0004918957198443572
0.0004863842832074457
0.0004781171282520784
0.0004588271000228878
0.00042851419851987416
0.00038717842374303736
0.0003430869306477448
0.0002989954375524522
0.00025214822613870384
0.00019978957808804387
0.00014467521171892812
6.200366216525454e-05
3.720219729915245e-05
6.8892957961388014e-06
-2.342360570687485e-05
-4.5469352254521147e-05
-5.9247943846800084e-05
-6.751509880216745e-05
-7.302653543907902e-05
-8.404940871290214e-05
-9.78280003051811e-05
-0.00010333943694209268
-0.00010058371862363688
-0.00010058371862363688
-0.00010885087357900426
-0.0001171180285343716
-0.00011436231021591582
-0.00010609515526054846
-0.00010333943694209268
-0.00010885087357900426
-0.0001171180285343716
-0.0001198737468528274
-0.0001171180285343716
-0.00011160659189746003
-0.00011436231021591582
-0.0001226294651712832
-0.00012538518348973897
-0.0001171180285343716
-0.00010609515526054846
-0.00010885087357900426
-0.00011436231021591582
-0.00011436231021591582
-0.00011160659189746003
-0.00010609515526054846
-0.00010333943694209268
-0.00010333943694209268
-0.00010609515526054846
-0.00010333943694209268
-9.507228198672531e-05
-9.231656366826955e-05
-9.507228198672531e-05
-9.78280003051811e-05
-9.78280003051811e-05
-8.680512703135793e-05
-8.129369039444639e-05
-8.680512703135793e-05
-9.507228198672531e-05
-9.507228198672531e-05
-8.956084534981374e-05
-8.680512703135793e-05
-8.956084534981374e-05
-9.507228198672531e-05
-0.00010333943694209268
-9.78280003051811e-05
-9.231656366826955e-05
-9.231656366826955e-05
-9.78280003051811e-05
-0.00010333943694209268
-9.78280003051811e-05
-8.956084534981374e-05
-9.231656366826955e-05
-9.78280003051811e-05
-0.00010333943694209268
-0.00010058371862363688
-9.231656366826955e-05
-9.507228198672531e-05
-0.00010333943694209268
-0.00010885087357900426
-0.00010885087357900426
-0.00010058371862363688
-0.00010058371862363688
-0.00010609515526054846
-0.00010885087357900426
-0.00010333943694209268
-9.78280003051811e-05
-0.00010333943694209268
-0.00011160659189746003
-0.00011436231021591582
-0.00010885087357900426
-0.00010609515526054846
-0.00010609515526054846
-0.00011160659189746003
-0.0001171180285343716
-0.00011436231021591582
-0.00010885087357900426
-0.00010885087357900426
-0.00011160659189746003
-0.00011436231021591582
-0.00011160659189746003
-0.00010333943694209268
-9.507228198672531e-05
-8.956084534981374e-05
-8.680512703135793e-05
-8.129369039444639e-05
-7.57822537575348e-05
-6.200366216525588e-05
-4.2713633936065354e-05
-3.169076066224221e-05
-2.066788738841907e-05
-9.64501411459592e-06
-9.64501411459592e-06
-2.342360570687485e-05
-5.3736507209888505e-05
-6.751509880216745e-05
-6.475938048371164e-05
-5.098078889143272e-05
-4.5469352254521147e-05
-5.098078889143272e-05
-6.751509880216745e-05
-8.404940871290214e-05
-0.00010058371862363688
-0.0001171180285343716
-0.00012814090180819475
-0.00012814090180819475
-0.00012538518348973897
-0.0001198737468528274
-0.0001171180285343716
-0.0001226294651712832
-0.00013089662012665053
-0.00013089662012665053
-0.0001198737468528274
-0.00011436231021591582
-0.0001171180285343716
-0.0001226294651712832
-0.00012814090180819475
-0.00010058371862363688
-1.7912169069963278e-05
0.00011711802853437029
0.0002741939726863501
0.0004340256351567857
0.0006186587624933234
0.0008914748760204465
0.0012359396658274198
0.0014315956664377805
0.0011394895246814672
0.00018601098649576498
-0.0012414511024643328
-0.002065410879682613
-0.001883533470664531
-0.0017209460898756396
-0.0015418243991760134
-0.0013130997787441834
-0.0010099707637140464
-0.0006820402838178078
-0.00046433853665980087
-0.0003100183108262768
-0.0002108124513618684
-0.00017223239490348733
-0.00014743093003738526
-0.0001226294651712832
-8.680512703135793e-05
-5.6492225528344285e-05
-3.720219729915378e-05
-2.342360570687485e-05
-1.240073243305171e-05
4.133577477683014e-06
2.3423605706873515e-05
3.169076066224089e-05
3.720219729915245e-05
3.9957915617608246e-05
5.098078889143139e-05
6.751509880216611e-05
7.578225375753347e-05
7.578225375753347e-05
8.129369039444505e-05
9.23165636682682e-05
0.00010885087357900291
0.00012262946517128183
0.00012262946517128183
0.0001253851834897376
0.00013640805676356078
0.00015018664835583973
0.00016396523994811866
0.00017498811322194178
0.0001832552681773092
0.00019152242313267648
0.00020805673304341124
0.00022459104295414594
0.00023561391622796914
0.00024388107118333642
0.0002549039444571596
0.0002769496910048059
0.0002934840009155406
0.00031001831082627527
0.0003182854657816428
0.0003348197756923775
0.0003596212405584795
0.0003844227054245816
0.0004064684519722279
0.00041749132524605104
0.0004340256351567857
0.0004533156633859763
0.0004726056916151668
0.0004974071564812689
0.0005056743114366363
0.0005111857480735478
0.0005194529030289152
0.0005359872129396498
0.0005442543678950173
0.000547010086213473
0.0005414986495765614
0.0005387429312581057
0.0005359872129396498
0.0005332314946211942
0.0005166971847104594
0.0004974071564812689
0.0004533156633859763
0.00042300276188296266
0.00037064411383230263
0.0003072625925078196
0.0002493925078202481
0.0001970338597695881
0.00015018664835583973
0.00010333943694209132
5.649222552834297e-05
1.2400732433050376e-05
-1.5156450751507488e-05
-3.169076066224221e-05
-5.098078889143272e-05
-7.57822537575348e-05
-0.00010058371862363688
-0.00011436231021591582
-0.00011436231021591582
-0.00011436231021591582
-0.0001226294651712832
-0.0001336523384451063
-0.00014191949340047367
-0.00014191949340047367
-0.00014191949340047367
-0.0001391637750820179
-0.00014743093003738526
-0.00015294236667429682
-0.00015294236667429682
-0.00015294236667429682
-0.0001584538033112084
-0.00016672095826657574
-0.00016947667658503157
-0.00016396523994811996
-0.0001612095216296642
-0.0001584538033112084
-0.00016396523994811996
-0.00016396523994811996
-0.00015294236667429682
-0.00014467521171892948
-0.0001391637750820179
-0.00014467521171892948
-0.00014743093003738526
-0.00014743093003738526
-0.0001391637750820179
-0.0001336523384451063
-0.0001364080567635621
-0.0001391637750820179
-0.0001364080567635621
-0.00012814090180819475
-0.00012814090180819475
-0.00013089662012665053
-0.00013089662012665053
-0.0001336523384451063
-0.00012538518348973897
-0.0001198737468528274
-0.0001226294651712832
-0.00013089662012665053
-0.0001391637750820179
-0.0001336523384451063
-0.00012538518348973897
-0.00012814090180819475
-0.0001364080567635621
-0.00014467521171892948
-0.00014467521171892948
-0.0001391637750820179
-0.0001336523384451063
-0.0001364080567635621
-0.00014467521171892948
-0.00014743093003738526
-0.0001364080567635621
-0.00014743093003738526
-0.00015294236667429682
-0.000150186648355841
-0.00014467521171892948
-0.00014191949340047367
-0.000150186648355841
-0.00015569808499275262
-0.0001612095216296642
-0.00015569808499275262
-0.00015294236667429682
-0.00015294236667429682
-0.00014743093003738526
-0.0001336523384451063
-0.00012538518348973897
-0.00011160659189746003
-0.00010885087357900426
-0.00011160659189746003
-9.507228198672531e-05
-7.027081712062322e-05
-5.098078889143272e-05
-4.2713633936065354e-05
-4.8225070572976926e-05
-6.475938048371164e-05
-8.404940871290214e-05
-8.956084534981374e-05
-9.78280003051811e-05
-0.00010609515526054846
-0.00010885087357900426
-0.00010609515526054846
-0.00010885087357900426
-0.0001198737468528274
-0.0001391637750820179
-0.00015569808499275262
-0.00016947667658503157
-0.00017498811322194308
-0.00016947667658503157
-0.00016947667658503157
-0.0001777438315403989
-0.0001777438315403989
-0.00017223239490348733
-0.00016672095826657574
-0.00016396523994811996
-0.00017223239490348733
-0.0001777438315403989
-0.0001777438315403989
-0.00016947667658503157
-0.00015294236667429682
-0.00010333943694209268
1.5156450751506162e-05
0.0001832552681773092
0.0003568655222400236
0.0005222086213473709
0.0007151089036392759
0.000960367833981841
0.0011422452429999228
0.0009383220874341949
0.00015018664835583973
-0.001186336736095217
-0.0022610668802929734
-0.0024649900358587017
-0.002244532570382239
-0.00200202935835813
-0.0018091290760662245
-0.0016079616388189524
-0.0013489241168841083
-0.001012726482032502
-0.0006847960021362637
-0.0003127740291447324
-0.00023285819790951464
-0.00018876670481422206
-0.00014467521171892948
-0.00010885087357900426
-8.680512703135793e-05
-6.751509880216745e-05
-4.5469352254521147e-05
-1.7912169069963278e-05
4.133577477683014e-06
1.5156450751506162e-05
2.066788738841773e-05
2.6179324025329308e-05
3.9957915617608246e-05
5.649222552834297e-05
6.475938048371032e-05
7.02708171206219e-05
7.853797207598924e-05
8.956084534981241e-05
0.00010058371862363556
0.00011160659189745871
0.00011160659189745871
0.00011711802853437029
0.00013365233844510492
0.00015294236667429551
0.00016120952162966288
0.00016672095826657444
0.00017498811322194178
0.00018601098649576498
0.00020805673304341124
0.00022734676127260172
0.00024112535286488067
0.0002493925078202481
0.000263171099412527
0.0002852168459601733
0.00030450687418936376
0.00032104118410009855
0.0003348197756923775
0.0003568655222400236
0.0003844227054245816
0.0004092241702906837
0.00042851419851987416
0.0004450485084306089
0.000469849973296711
0.0005001628747997245
0.0005277200579842825
0.0005497658045319286
0.000560788677805752
0.0005773229877164866
0.0006021244525825888
0.0006241701991302349
0.0006351930724040583
0.0006324373540856024
0.0006324373540856024
0.000637948790722514
0.0006407045090409697
0.0006351930724040583
0.0006186587624933234
0.0006021244525825888
0.0005773229877164866
0.0005552772411688404
0.0005166971847104594
0.0004533156633859763
0.00037891126878767
0.0003072625925078196
0.00024112535286488067
0.00018049954985885336
0.00011711802853437029
5.373650720988717e-05
-2.8935042343786426e-05
-5.6492225528344285e-05
-8.680512703135793e-05
-0.00011436231021591582
-0.0001336523384451063
-0.00014467521171892948
-0.00014743093003738526
-0.00015294236667429682
-0.00016396523994811996
-0.0001777438315403989
-0.00018325526817731047
-0.0001777438315403989
-0.00017223239490348733
-0.00018049954985885472
-0.00019152242313267784
-0.00019703385976958942
-0.00019152242313267784
-0.00018876670481422206
-0.00019427814145113364
-0.0001997895780880452
-0.00020530101472495681
-0.0001997895780880452
-0.00019427814145113364
-0.00018876670481422206
-0.00019427814145113364
-0.00019427814145113364
-0.00018876670481422206
-0.00018049954985885472
-0.00018049954985885472
-0.00018601098649576628
-0.00018876670481422206
-0.00018325526817731047
-0.00017498811322194308
-0.00017223239490348733
-0.0001777438315403989
-0.00017498811322194308
-0.00016947667658503157
-0.00016396523994811996
-0.0001612095216296642
-0.00016672095826657574
-0.00017223239490348733
-0.00016672095826657574
-0.0001584538033112084
-0.0001584538033112084
-0.0001612095216296642
-0.00016672095826657574
-0.00016947667658503157
-0.00016396523994811996
-0.00016396523994811996
-0.00016947667658503157
-0.00017498811322194308
-0.00018049954985885472
-0.0001777438315403989
-0.00017223239490348733
-0.0001777438315403989
-0.00018325526817731047
-0.00018601098649576628
-0.00018325526817731047
-0.0001777438315403989
-0.0001777438315403989
-0.00018601098649576628
-0.00018876670481422206
-0.00018876670481422206
-0.00018325526817731047
-0.00018049954985885472
-0.00018601098649576628
-0.00019152242313267784
-0.00019427814145113364
