0.0003127740291447311
0.0003293083390554659
0.000365132677195391
0.00041749132524605104
0.000456071381704432
0.000456071381704432
0.0004450485084306089
0.0004615828183413437
0.000508430029755092
0.0005304757763027383
0.0005442543678950173
0.0005718115510795751
0.0006186587624933234
0.0006324373540856024
0.0006186587624933234
0.0006186587624933234
0.0006269259174486908
0.0006407045090409697
0.0006489716639963371
0.0006517273823147929
0.0006407045090409697
0.0006186587624933234
0.0005911015793087656
0.0005497658045319286
0.0004974071564812689
0.0004064684519722279
0.00032655262073701005
0.00025214822613870384
0.00018601098649576498
0.0001253851834897376
5.373650720988717e-05
-2.066788738841907e-05
-8.404940871290214e-05
-0.00010609515526054846
-0.0001198737468528274
-0.00014191949340047367
-0.00017223239490348733
-0.00019152242313267784
-0.00019152242313267784
-0.0002108124513618684
-0.0002218353246356915
-0.00022459104295414727
-0.0002466367895017936
-0.0002604153810940725
-0.0002549039444571609
-0.00024939250782024937
-0.0002631710994125282
-0.0002631710994125282
-0.00024388107118333775
-0.0002190796063172357
-0.00021632388799877996
-0.0002549039444571609
-0.00025765966277561676
-0.00024112535286488197
-0.00024112535286488197
-0.00022734676127260308
-0.00025765966277561676
-0.0002466367895017936
-0.00021632388799877996
-0.00020254529640650095
-0.00020254529640650095
-0.0002080567330434125
-0.0002080567330434125
-0.00018325526817731047
-0.00018876670481422206
-0.0001997895780880452
-0.00018601098649576628
-0.00017498811322194308
-0.00016396523994811996
-0.00014743093003738526
-0.00013089662012665053
-0.0001391637750820179
-0.0001391637750820179
-0.0001336523384451063
-0.00010333943694209268
-7.85379720759906e-05
-5.6492225528344285e-05
-4.8225070572976926e-05
-6.475938048371164e-05
-7.027081712062322e-05
-5.6492225528344285e-05
-6.200366216525588e-05
-5.098078889143272e-05
-6.475938048371164e-05
-8.680512703135793e-05
-0.00010058371862363688
-0.0001226294651712832
-0.000150186648355841
-0.00015569808499275262
-0.0001584538033112084
-0.00019152242313267784
-0.00021356816968032413
-0.0002218353246356915
-0.00021356816968032413
-0.00020254529640650095
-0.00019152242313267784
-0.0002108124513618684
-0.00020254529640650095
-0.00019152242313267784
-0.00019152242313267784
-0.00020254529640650095
-0.00021632388799877996
-0.0001997895780880452
-0.0001336523384451063
1.3778591592272275e-06
0.00016672095826657444
0.0003430869306477448
0.0005414986495765614
0.0007288874952315547
0.0009245434958419158
0.000985169298847943
0.0005718115510795751
-0.0003568655222400251
-0.0016079616388189524
-0.002390585641260396
-0.0023960970778973073
-0.0021508381475547427
-0.0019303806820782797
-0.001715434653238728
-0.0014701757228961628
-0.0011450009613183801
-0.0005332314946211955
-0.00035410980392156926
-0.00024112535286488197
-0.00020530101472495681
-0.0001612095216296642
-0.00012538518348973897
-0.00011436231021591582
-9.231656366826955e-05
-7.85379720759906e-05
-3.720219729915378e-05
1.3778591592272275e-06
9.64501411459459e-06
1.5156450751506162e-05
3.444647898069667e-05
5.373650720988717e-05
7.578225375753347e-05
9.23165636682682e-05
7.578225375753347e-05
8.68051270313566e-05
0.0001253851834897376
0.00015294236667429551
0.00014743093003738393
0.00014467521171892812
0.00015018664835583973
0.00016396523994811866
0.00020254529640649968
0.00023561391622796914
0.00022459104295414594
0.00023285819790951333
0.000263171099412527
0.0002879725642786291
0.000315529747463187
0.000340331212329289
0.0003348197756923775
0.00032104118410009855
0.000365132677195391
0.0004422927901121532
0.0004918957198443572
0.0004863842832074457
0.0004974071564812689
0.0005166971847104594
0.0005580329594872961
0.0005745672693980309
0.0005911015793087656
0.0006076358892195001
0.0006241701991302349
0.0006462159456778814
0.0006627502555886161
0.0006820402838178067
0.0006903074387731741
0.000676528847180895
0.0006847960021362622
0.0006847960021362622
0.000679284565499351
0.0006489716639963371
0.0006103916075379561
0.0005690558327611192
0.0005166971847104594
0.0004422927901121532
0.00035410980392156795
0.00027970540932326175
0.0002135681696803228
0.0001556980849927513
0.00010609515526054714
4.546935225451981e-05
-2.6179324025330647e-05
-6.475938048371164e-05
-7.85379720759906e-05
-0.0001364080567635621
-0.00015569808499275262
-0.00016396523994811996
-0.00015569808499275262
-0.00017498811322194308
-0.00018325526817731047
-0.00018876670481422206
-0.00019427814145113364
-0.00020254529640650095
-0.00020254529640650095
-0.00020254529640650095
-0.00020254529640650095
-0.00020530101472495681
-0.00019703385976958942
-0.0002108124513618684
-0.00022459104295414727
-0.00022459104295414727
-0.00021356816968032413
-0.00021356816968032413
-0.00020530101472495681
-0.0001777438315403989
-0.0001777438315403989
-0.0001777438315403989
-0.00016947667658503157
-0.00015569808499275262
-0.0001584538033112084
-0.00016672095826657574
-0.0001777438315403989
-0.00016396523994811996
-0.0001336523384451063
-0.0001171180285343716
-0.00011160659189746003
-0.00010885087357900426
-8.956084534981374e-05
-7.302653543907902e-05
-6.751509880216745e-05
-6.200366216525588e-05
-5.9247943846800084e-05
-4.2713633936065354e-05
4.133577477683014e-06
3.444647898069667e-05
3.9957915617608246e-05
2.8935042343785094e-05
1.2400732433050376e-05
-1.7912169069963278e-05
-5.3736507209888505e-05
-4.5469352254521147e-05
-3.4446478980697995e-05
-5.098078889143272e-05
-5.6492225528344285e-05
-5.9247943846800084e-05
-7.302653543907902e-05
-8.680512703135793e-05
-0.0001171180285343716
-0.0001364080567635621
-0.000150186648355841
-0.00016672095826657574
-0.0001612095216296642
-0.00014467521171892948
-0.0001336523384451063
-0.0001226294651712832
-0.00012814090180819475
-0.0001391637750820179
-0.00015294236667429682
-0.00016947667658503157
-0.0001777438315403989
-0.000150186648355841
-8.680512703135793e-05
0.00022459104295414594
0.00041473560692759526
0.0005800787060349425
0.0007426660868238338
0.0009162763408865484
0.0008694291294728002
0.0003568655222400236
-0.0005663001144426648
-0.0017347246814679183
-0.0023464941481651028
-0.0022858683451590757
-0.0020516322880903336
-0.0018256633859769598
-0.0015969387655451288
-0.0013323898069733738
-0.0009824135805294888
-0.0006351930724040594
-0.0003816669871061273
-0.00023010247959105888
-0.0001612095216296642
-0.00012538518348973897
-8.956084534981374e-05
-3.995791561760957e-05
-1.7912169069963278e-05
-1.7912169069963278e-05
9.64501411459459e-06
3.169076066224089e-05
6.475938048371032e-05
8.404940871290084e-05
7.02708171206219e-05
7.02708171206219e-05
9.23165636682682e-05
0.00010885087357900291
0.00013365233844510492
0.00015294236667429551
0.0001556980849927513
0.0001556980849927513
0.00016120952162966288
0.00018601098649576498
0.00020254529640649968
0.0001970338597695881
0.00019978957808804387
0.00024388107118333642
0.0002741939726863501
0.00029623971923399637
0.0003072625925078196
0.00032104118410009855
0.0003348197756923775
0.00035135408560311223
0.0003844227054245816
0.0004064684519722279
0.00041749132524605104
0.0004367813534752416
0.0004615828183413437
0.0004808728465705341
0.0005139414663920035
0.0005277200579842825
0.0005387429312581057
0.0005938572976272215
0.0006214144808117793
0.0006434602273594254
0.0006627502555886161
0.0006682616922255276
0.0006737731288624392
0.0006930631570916297
0.0006985745937285414
0.000687551720454718
0.0006930631570916297
0.0007233760585946433
0.0007095974670023644
0.0006737731288624392
0.0006296816357671465
0.0005745672693980309
0.0005304757763027383
0.000456071381704432
0.00037064411383230263
0.00029072828259708476
0.00022459104295414594
0.00017498811322194178
0.00011711802853437029
5.9247943846798756e-05
1.2400732433050376e-05
-4.2713633936065354e-05
-7.027081712062322e-05
-7.027081712062322e-05
-8.404940871290214e-05
-0.00010609515526054846
-0.0001226294651712832
-0.00012538518348973897
-0.00012814090180819475
-0.00014191949340047367
-0.00014191949340047367
-0.00014743093003738526
-0.00016396523994811996
-0.00016947667658503157
-0.0001584538033112084
-0.00015294236667429682
-0.0001612095216296642
-0.0001584538033112084
-0.00015294236667429682
-0.0001584538033112084
-0.0001777438315403989
-0.00016396523994811996
-0.00014467521171892948
-0.0001336523384451063
-0.00014467521171892948
-0.00015294236667429682
-0.0001336523384451063
-0.0001226294651712832
-0.00012538518348973897
-0.00013089662012665053
-0.00012814090180819475
-0.00013089662012665053
-0.0001336523384451063
-0.0001198737468528274
-9.78280003051811e-05
-6.475938048371164e-05
-5.6492225528344285e-05
-5.098078889143272e-05
-4.5469352254521147e-05
-4.5469352254521147e-05
-4.2713633936065354e-05
-3.720219729915378e-05
-3.169076066224221e-05
1.2400732433050376e-05
4.546935225451981e-05
7.02708171206219e-05
5.9247943846798756e-05
3.9957915617608246e-05
2.066788738841773e-05
6.8892957961388014e-06
4.133577477683014e-06
2.066788738841773e-05
9.64501411459459e-06
-1.377859159228559e-06
-1.7912169069963278e-05
-4.8225070572976926e-05
-0.00010058371862363688
-0.00010609515526054846
-0.00011160659189746003
-0.00011160659189746003
-0.00012538518348973897
-0.0001364080567635621
-0.0001364080567635621
-0.00014191949340047367
-0.00012814090180819475
-0.0001171180285343716
-0.0001226294651712832
-0.00014191949340047367
-0.0001391637750820179
-0.00010885087357900426
-5.098078889143272e-05
6.475938048371032e-05
0.00023561391622796914
0.00041749132524605104
0.0005745672693980309
0.0007288874952315547
0.0009052534676127252
0.0009438335240711064
0.0005442543678950173
-0.00029072828259708617
-0.0014922214694438093
-0.002244532570382239
-0.0022417768520637833
-0.002026830823224232
-0.0017953504844739458
-0.0015390686808575578
-0.0012827868772411696
-0.0009355663691157402
-0.0005800787060349438
-0.0003485983672846577
-0.0002108124513618684
-0.00015294236667429682
-0.0001364080567635621
-9.507228198672531e-05
-5.098078889143272e-05
-2.8935042343786426e-05
1.3778591592272275e-06
2.8935042343785094e-05
3.720219729915245e-05
3.9957915617608246e-05
5.373650720988717e-05
9.23165636682682e-05
0.00010333943694209132
0.00010333943694209132
0.00011987374685282605
0.00013916377508201656
0.00015845380331120705
0.00016396523994811866
0.00015845380331120705
0.000172232394903486
0.0001832552681773092
0.00019152242313267648
0.00021632388799877858
0.00024663678950179223
0.00026041538109407124
0.0002824611276417174
0.0003072625925078196
0.00030450687418936376
0.00031001831082627527
0.0003430869306477448
0.00036788839551384685
0.00038993414206149314
0.0004064684519722279
0.00041749132524605104
0.0004340256351567857
0.000456071381704432
0.0005111857480735478
0.0005359872129396498
0.0005497658045319286
0.000585590142671854
0.0006159030441748677
0.0006324373540856024
0.0006462159456778814
0.0006544831006332488
0.0006682616922255276
0.0006737731288624392
0.000676528847180895
0.000687551720454718
0.0006958188754100854
0.0007123531853208202
0.0007233760585946433
0.0007095974670023644
0.0006737731288624392
0.0006324373540856024
0.0006048801709010444
0.0005497658045319286
0.00048362856488898997
0.0004092241702906837
0.0003348197756923775
0.00026041538109407124
0.00018601098649576498
0.00013640805676356078
7.853797207598924e-05
4.82250705729756e-05
2.066788738841773e-05
-1.377859159228559e-06
-2.342360570687485e-05
-5.3736507209888505e-05
-7.027081712062322e-05
-8.129369039444639e-05
-9.231656366826955e-05
-9.78280003051811e-05
-0.00010609515526054846
-0.00010885087357900426
-0.00010885087357900426
-0.00011436231021591582
-0.00011160659189746003
-0.00010609515526054846
-0.00011436231021591582
-0.00013089662012665053
-0.0001171180285343716
-0.00010609515526054846
-9.78280003051811e-05
-8.956084534981374e-05
-0.00010333943694209268
-0.0001198737468528274
-0.00011160659189746003
-0.00010609515526054846
-9.78280003051811e-05
-0.00010885087357900426
-0.00010058371862363688
-7.027081712062322e-05
-6.751509880216745e-05
-7.027081712062322e-05
-7.85379720759906e-05
-8.956084534981374e-05
-8.680512703135793e-05
-6.200366216525588e-05
-3.995791561760957e-05
-1.7912169069963278e-05
-1.7912169069963278e-05
-2.066788738841907e-05
-4.133577477684346e-06
-1.377859159228559e-06
2.3423605706873515e-05
5.9247943846798756e-05
8.956084534981241e-05
0.00010333943694209132
8.404940871290084e-05
4.82250705729756e-05
2.6179324025329308e-05
3.444647898069667e-05
2.3423605706873515e-05
1.7912169069961946e-05
2.6179324025329308e-05
9.64501411459459e-06
-1.5156450751507488e-05
-3.720219729915378e-05
-5.098078889143272e-05
-5.6492225528344285e-05
-8.129369039444639e-05
-0.00010333943694209268
-8.680512703135793e-05
-7.027081712062322e-05
-7.027081712062322e-05
-7.85379720759906e-05
-8.680512703135793e-05
-8.129369039444639e-05
-8.680512703135793e-05
-7.85379720759906e-05
-8.680512703135793e-05
-9.231656366826955e-05
-5.6492225528344285e-05
5.649222552834297e-05
0.00021632388799877858
0.0003816669871061258
0.0005414986495765614
0.0007123531853208202
0.0009300549324788276
0.0010595736934462493
0.0007950247348744939
4.82250705729756e-05
-0.00109264231326772
-0.002026830823224232
-0.0021728838941023885
-0.0019717164568551163
-0.0017760604562447552
-0.0015748930189974828
-0.0013186112153810948
-0.0010044593270771348
-0.0006655059739070732
-0.00041197988860914084
-0.00023285819790951464
-0.00012538518348973897
-7.85379720759906e-05
-4.8225070572976926e-05
-3.4446478980697995e-05
-1.7912169069963278e-05
2.8935042343785094e-05
4.546935225451981e-05
7.853797207598924e-05
9.23165636682682e-05
9.782800030517979e-05
0.00010885087357900291
0.00013640805676356078
0.00014467521171892812
0.00014467521171892812
0.0001556980849927513
0.00014743093003738393
0.00016396523994811866
0.0002135681696803228
0.0002190796063172344
0.0002218353246356902
0.00024663678950179223
0.0002741939726863501
0.0002934840009155406
0.000315529747463187
0.00032655262073701005
0.00033206405737392166
0.00034584264896620056
0.0003623769588769353
0.0003844227054245816
0.0003982012970168605
0.00041749132524605104
0.000456071381704432
0.0004808728465705341
0.00048362856488898997
0.0004946514381628131
0.0005304757763027383
0.0005635443961242077
0.000585590142671854
0.0006131473258564118
0.0006296816357671465
0.0006407045090409697
0.0006489716639963371
0.0006737731288624392
0.0007040860303654528
0.0007261317769130989
0.0007481775234607456
0.0007509332417792012
0.0007343989318684667
0.0007233760585946433
0.0007288874952315547
0.0007233760585946433
0.0007095974670023644
0.0006847960021362622
0.0006489716639963371
0.0005883458609903097
0.0005249643396658268
0.0004478042267490647
0.000365132677195391
0.00029623971923399637
0.00023561391622796914
0.00017498811322194178
0.00011160659189745871
5.373650720988717e-05
9.64501411459459e-06
-1.240073243305171e-05
-3.169076066224221e-05
-5.3736507209888505e-05
-7.57822537575348e-05
-8.129369039444639e-05
-0.00010333943694209268
-0.00010609515526054846
-9.507228198672531e-05
-9.78280003051811e-05
-0.00011436231021591582
-0.0001226294651712832
-0.0001336523384451063
-0.0001391637750820179
-0.00013089662012665053
-0.00012538518348973897
-0.00013089662012665053
-0.00012814090180819475
-0.0001336523384451063
-0.00013089662012665053
-0.00012538518348973897
-0.00012814090180819475
-0.0001391637750820179
-0.00012814090180819475
-0.00011436231021591582
-0.0001171180285343716
-0.0001171180285343716
-0.00011160659189746003
-0.00011160659189746003
-0.00010609515526054846
-0.00010058371862363688
-9.507228198672531e-05
-8.680512703135793e-05
-7.57822537575348e-05
-5.9247943846800084e-05
-5.098078889143272e-05
-5.6492225528344285e-05
-5.9247943846800084e-05
-5.9247943846800084e-05
-4.5469352254521147e-05
-1.7912169069963278e-05
-1.5156450751507488e-05
-4.133577477684346e-06
3.444647898069667e-05
6.200366216525454e-05
6.475938048371032e-05
4.546935225451981e-05
1.2400732433050376e-05
-4.133577477684346e-06
-4.133577477684346e-06
-1.377859159228559e-06
-1.5156450751507488e-05
-1.7912169069963278e-05
-4.2713633936065354e-05
-5.098078889143272e-05
-7.85379720759906e-05
-0.0001171180285343716
-0.00011436231021591582
-0.00010609515526054846
-0.00011436231021591582
-0.00011436231021591582
-0.00011436231021591582
-0.00012814090180819475
-0.00014743093003738526
-0.0001364080567635621
-0.0001171180285343716
-9.231656366826955e-05
-9.78280003051811e-05
-0.0001198737468528274
-8.956084534981374e-05
-6.889295796140132e-06
0.00014743093003738393
0.0003430869306477448
0.0005111857480735478
0.0006434602273594254
0.0008418719462882423
0.0010568179751277937
0.000960367833981841
0.0003127740291447311
-0.0008225819180590531
-0.0019331364003967355
-0.0022472882887006945
-0.0020791894712748915
-0.0018366862592507824
-0.0016162287937743196
-0.001401282764934768
-0.001147756679636836
-0.0008253376363775088
-0.0005222086213473721
-0.0003430869306477461
-0.0002108124513618684
-0.00010609515526054846
-8.404940871290214e-05
-4.8225070572976926e-05
-2.342360570687485e-05
1.2400732433050376e-05
2.3423605706873515e-05
4.546935225451981e-05
7.02708171206219e-05
8.68051270313566e-05
9.23165636682682e-05
9.23165636682682e-05
8.956084534981241e-05
0.00011160659189745871
0.00014191949340047234
0.0001694766765850302
0.00017774383154039756
0.00015845380331120705
0.0001694766765850302
0.0001832552681773092
0.0002135681696803228
0.00025214822613870384
0.00027143825436789435
0.0002852168459601733
0.0002934840009155406
0.00030450687418936376
0.00032379690241855427
0.0003348197756923775
0.0003430869306477448
0.0003733998321507585
0.0003954455786984048
0.00041473560692759526
0.00042851419851987416
0.0004505599450675205
0.000469849973296711
0.0004946514381628131
0.0005525215228503846
0.000585590142671854
0.0006021244525825888
0.000599368734264133
0.0006103916075379561
0.000637948790722514
0.0006572388189517045
0.0006599945372701603
0.0006710174105439835
0.000701330312046997
0.0007316432135500107
0.0007371546501869223
0.0007399103685053779
0.0007261317769130989
0.0007068417486839086
0.000701330312046997
0.0006847960021362622
0.0006517273823147929
0.0005938572976272215
0.0005304757763027383
0.0004478042267490647
0.0003596212405584795
0.000301751155870908
0.0002218353246356902
0.00016120952162966288
9.507228198672396e-05
5.649222552834297e-05
1.7912169069961946e-05
-3.4446478980697995e-05
-7.57822537575348e-05
-0.00010885087357900426
-0.0001198737468528274
-0.0001226294651712832
-0.00012814090180819475
-0.0001364080567635621
-0.000150186648355841
-0.0001391637750820179
-0.00014467521171892948
-0.0001584538033112084
-0.00018876670481422206
-0.0001777438315403989
-0.000150186648355841
-0.00014467521171892948
-0.00016672095826657574
-0.0001777438315403989
-0.00016396523994811996
-0.00014743093003738526
-0.00015294236667429682
-0.00014743093003738526
-0.0001364080567635621
-0.0001364080567635621
-0.0001391637750820179
-0.0001364080567635621
-0.00014191949340047367
-0.00014743093003738526
-0.00012538518348973897
-0.00011436231021591582
-0.00011436231021591582
-0.0001226294651712832
-0.0001198737468528274
-0.00013089662012665053
-0.0001336523384451063
-9.78280003051811e-05
-8.680512703135793e-05
-8.956084534981374e-05
-8.129369039444639e-05
-6.751509880216745e-05
-5.9247943846800084e-05
-8.129369039444639e-05
-8.404940871290214e-05
-6.751509880216745e-05
-2.8935042343786426e-05
1.7912169069961946e-05
4.271363393606403e-05
2.8935042343785094e-05
-9.64501411459592e-06
-2.8935042343786426e-05
-1.240073243305171e-05
-1.377859159228559e-06
-2.342360570687485e-05
-2.8935042343786426e-05
-3.169076066224221e-05
-4.8225070572976926e-05
-6.751509880216745e-05
-8.956084534981374e-05
-0.0001171180285343716
-0.0001391637750820179
-0.00012814090180819475
-0.00011436231021591582
-0.00011436231021591582
-0.00012538518348973897
-0.00014467521171892948
-0.0001584538033112084
-0.00014743093003738526
-0.0001364080567635621
-0.00014467521171892948
-0.0001391637750820179
-0.00014467521171892948
-0.0001364080567635621
-0.0001171180285343716
1.2400732433050376e-05
0.0003733998321507585
0.0005690558327611192
0.000767467551689936
0.0010209936369878683
0.0011946038910505827
0.0009631235523002968
0.000172232394903486
-0.0011174437781338222
-0.0020984794995040825
-0.002239021133745327
-0.0020433651331349667
-0.0018394419775692383
-0.0016189845120927755
-0.001401282764934768
-0.0011312223697261012
-0.0007812461432822162
-0.000500162874799726
-0.00032379690241855563
-0.0002080567330434125
-0.00017223239490348733
-0.00012814090180819475
-0.00010333943694209268
-7.85379720759906e-05
-1.7912169069963278e-05
1.2400732433050376e-05
2.3423605706873515e-05
3.720219729915245e-05
5.9247943846798756e-05
6.751509880216611e-05
6.475938048371032e-05
9.507228198672396e-05
0.00011711802853437029
0.00011711802853437029
0.00011987374685282605
0.00014191949340047234
0.00015294236667429551
0.000172232394903486
0.0001832552681773092
0.000172232394903486
0.00017498811322194178
0.00019978957808804387
0.00023010247959105753
0.0002576596627756154
0.0002824611276417174
0.00029623971923399637
0.0002852168459601733
0.00029623971923399637
0.00033206405737392166
0.00037064411383230263
0.00040371273365377215
0.00041197988860913943
0.00041749132524605104
0.00042851419851987416
0.0004615828183413437
0.0004946514381628131
0.0005139414663920035
0.0005414986495765614
0.0005745672693980309
0.0005828344243533982
0.0006076358892195001
0.0006324373540856024
0.0006296816357671465
0.0006407045090409697
0.000676528847180895
0.0006985745937285414
0.0007040860303654528
0.0007068417486839086
0.0006930631570916297
0.000701330312046997
0.0006847960021362622
0.0006655059739070718
0.0006241701991302349
0.0005718115510795751
0.000508430029755092
0.0004340256351567857
0.00034584264896620056
0.0002576596627756154
0.00019427814145113231
0.0001253851834897376
6.475938048371032e-05
1.2400732433050376e-05
-1.5156450751507488e-05
-4.5469352254521147e-05
-8.129369039444639e-05
-0.0001226294651712832
-0.0001364080567635621
-0.0001364080567635621
-0.00013089662012665053
-0.00014743093003738526
-0.0001777438315403989
-0.00018876670481422206
-0.00018601098649576628
-0.00016672095826657574
-0.0001612095216296642
-0.00017498811322194308
-0.00019152242313267784
-0.0001997895780880452
-0.00018325526817731047
-0.0001777438315403989
-0.00018049954985885472
-0.00019152242313267784
-0.0001997895780880452
-0.0002080567330434125
-0.00018601098649576628
-0.0001612095216296642
-0.00014743093003738526
-0.00015569808499275262
-0.0001584538033112084
-0.00014191949340047367
-0.00013089662012665053
-0.00014191949340047367
-0.00015294236667429682
-0.00016396523994811996
-0.00018325526817731047
-0.00016672095826657574
-0.00012538518348973897
-0.00010885087357900426
-0.00011160659189746003
-8.956084534981374e-05
-7.302653543907902e-05
-6.751509880216745e-05
-7.57822537575348e-05
-8.956084534981374e-05
-9.231656366826955e-05
-5.3736507209888505e-05
-4.5469352254521147e-05
-2.342360570687485e-05
-4.133577477684346e-06
-6.889295796140132e-06
4.133577477683014e-06
-1.377859159228559e-06
-1.7912169069963278e-05
-2.8935042343786426e-05
-4.8225070572976926e-05
-5.9247943846800084e-05
-5.098078889143272e-05
-8.680512703135793e-05
-0.00012538518348973897
-0.00017223239490348733
-0.0001612095216296642
-0.00013089662012665053
-0.0001364080567635621
-0.00014467521171892948
-0.00015294236667429682
-0.00014467521171892948
-0.00014743093003738526
-0.000150186648355841
-0.0001584538033112084
-0.00016396523994811996
-0.0001584538033112084
-0.00016396523994811996
-0.00015294236667429682
-0.00014467521171892948
-4.8225070572976926e-05
0.00011436231021591448
0.000301751155870908
0.0004974071564812689
0.0006820402838178067
0.0008859634393835348
0.0010926423132677188
0.0009961921721217662
0.00035135408560311223
-0.0007619561150530257
-0.0019441592736705586
-0.0023382269932097363
-0.0021783953307393
-0.0019662050202182047
-0.0017595261463340204
-0.001544580117494469
-0.0012882983138780809
-0.0009465892423895632
-0.0006351930724040594
-0.00041749132524605234
-0.00025765966277561676
-0.00018049954985885472
-0.0001391637750820179
-0.00012538518348973897
-0.00010609515526054846
-6.200366216525588e-05
-2.8935042343786426e-05
-1.240073243305171e-05
2.066788738841773e-05
5.373650720988717e-05
4.82250705729756e-05
3.444647898069667e-05
5.9247943846798756e-05
8.404940871290084e-05
0.00010609515526054714
0.00012814090180819342
0.00012262946517128183
0.00015018664835583973
0.0001694766765850302
0.00016120952162966288
0.00017498811322194178
0.00019978957808804387
0.00020530101472495543
0.0002190796063172344
0.00024112535286488067
0.0002549039444571596
0.0002686825360494386
0.0002824611276417174
0.000301751155870908
0.0003293083390554659
0.00036788839551384685
0.000392689860379949
0.0004092241702906837
0.0004395370717936973
0.0004505599450675205
0.0004808728465705341
0.000508430029755092
0.0005525215228503846
0.000599368734264133
0.0006214144808117793
0.0006269259174486908
0.0006407045090409697
0.0006544831006332488
0.0006847960021362622
0.0007040860303654528
0.0007068417486839086
0.0007068417486839086
0.000687551720454718
0.000687551720454718
0.000717864621957732
0.0007123531853208202
0.0006903074387731741
0.0006655059739070718
0.0006048801709010444
0.000547010086213473
0.0004918957198443572
0.00042300276188296266
0.00032104118410009855
0.00024112535286488067
0.00019152242313267648
0.00014743093003738393
9.507228198672396e-05
2.8935042343785094e-05
-1.7912169069963278e-05
-5.6492225528344285e-05
-5.6492225528344285e-05
-6.751509880216745e-05
-0.00010885087357900426
-0.0001391637750820179
-0.00014743093003738526
-0.00014743093003738526
-0.00014191949340047367
-0.00016396523994811996
-0.00018325526817731047
-0.00017223239490348733
-0.0001612095216296642
-0.00017223239490348733
-0.00018876670481422206
-0.00018049954985885472
-0.0001777438315403989
-0.00018325526817731047
-0.00019427814145113364
-0.00018601098649576628
-0.00018601098649576628
-0.00016396523994811996
-0.00014191949340047367
-0.000150186648355841
-0.00014191949340047367
-0.0001364080567635621
-0.00014191949340047367
-0.0001391637750820179
-0.0001226294651712832
-0.0001171180285343716
-9.507228198672531e-05
-0.00010058371862363688
-0.00010885087357900426
-0.00010609515526054846
-0.00010333943694209268
-0.00010333943694209268
-8.404940871290214e-05
-4.2713633936065354e-05
-3.169076066224221e-05
-2.8935042343786426e-05
-4.2713633936065354e-05
-5.098078889143272e-05
1.3778591592272275e-06
4.546935225451981e-05
6.200366216525454e-05
7.02708171206219e-05
5.9247943846798756e-05
3.444647898069667e-05
9.64501411459459e-06
-4.133577477684346e-06
-2.066788738841907e-05
-2.066788738841907e-05
-1.240073243305171e-05
-2.6179324025330647e-05
-7.57822537575348e-05
-6.751509880216745e-05
-6.751509880216745e-05
-9.507228198672531e-05
-0.00010609515526054846
-0.00011160659189746003
-0.00010885087357900426
-9.78280003051811e-05
-0.00010333943694209268
-0.0001198737468528274
-0.0001198737468528274
-0.00012538518348973897
-0.0001336523384451063
-0.0001226294651712832
-0.0001226294651712832
-0.00011436231021591582
-7.302653543907902e-05
4.546935225451981e-05
0.0002218353246356902
0.0003954455786984048
0.0005800787060349425
0.000767467551689936
0.00097414642557412
0.0010430393835355147
0.0006351930724040583
-0.0002631710994125282
-0.001472931441214619
-0.0022720897535667968
-0.0022913797817959874
-0.0020791894712748915
-0.0018642434424353406
-0.0016189845120927755
-0.0013764813000686665
-0.0010733522850385297
-0.0007151089036392773
-0.00046433853665980087
-0.00027419397268635144
-0.0001584538033112084
-9.507228198672531e-05
-4.8225070572976926e-05
-2.342360570687485e-05
-1.7912169069963278e-05
2.066788738841773e-05
5.649222552834297e-05
6.475938048371032e-05
6.200366216525454e-05
8.404940871290084e-05
0.00011711802853437029
0.00012814090180819342
0.00011160659189745871
0.00013089662012664922
0.00017498811322194178
0.00018601098649576498
0.0001832552681773092
0.00019427814145113231
0.0002135681696803228
0.00024112535286488067
0.000263171099412527
0.0002686825360494386
0.0002769496910048059
0.0002852168459601733
0.0003072625925078196
0.000340331212329289
0.00036788839551384685
0.00041197988860913943
0.00042851419851987416
0.00042575848020141833
0.0004478042267490647
0.00047536140993362247
0.0004863842832074457
0.0005111857480735478
0.0005332314946211942
0.0005718115510795751
0.0006021244525825888
0.0006186587624933234
0.0006214144808117793
0.0006434602273594254
0.0006682616922255276
0.0006930631570916297
0.0007151089036392759
0.0007261317769130989
0.0007233760585946433
0.0007426660868238338
0.0007647118333714802
0.0007619561150530243
0.000753688960097657
0.0007399103685053779
0.000717864621957732
0.0007068417486839086
0.000679284565499351
0.0006131473258564118
0.000547010086213473
0.0004726056916151668
0.0003954455786984048
0.000315529747463187
0.00024388107118333642
0.00017498811322194178
0.00011436231021591448
6.200366216525454e-05
3.444647898069667e-05
4.133577477683014e-06
-2.066788738841907e-05
-3.4446478980697995e-05
-4.8225070572976926e-05
-6.751509880216745e-05
-8.129369039444639e-05
-8.129369039444639e-05
-7.57822537575348e-05
-8.956084534981374e-05
-0.00010609515526054846
-0.00010333943694209268
-0.00010609515526054846
-0.00013089662012665053
-0.0001391637750820179
-0.0001364080567635621
-0.00012814090180819475
-0.00012814090180819475
-0.0001391637750820179
-0.00013089662012665053
-0.00011436231021591582
-0.00010333943694209268
-0.00011160659189746003
-0.00010885087357900426
-0.00010058371862363688
-8.680512703135793e-05
-8.404940871290214e-05
-7.57822537575348e-05
-7.302653543907902e-05
-6.751509880216745e-05
-6.475938048371164e-05
-6.200366216525588e-05
-6.200366216525588e-05
-5.9247943846800084e-05
-5.3736507209888505e-05
-3.4446478980697995e-05
-2.066788738841907e-05
-3.169076066224221e-05
-2.342360570687485e-05
-4.133577477684346e-06
1.7912169069961946e-05
1.7912169069961946e-05
2.8935042343785094e-05
4.82250705729756e-05
7.30265354390777e-05
0.00010058371862363556
0.00011711802853437029
0.00010333943694209132
9.23165636682682e-05
8.68051270313566e-05
7.578225375753347e-05
6.200366216525454e-05
4.82250705729756e-05
3.720219729915245e-05
3.444647898069667e-05
2.8935042343785094e-05
6.8892957961388014e-06
-2.8935042343786426e-05
-3.169076066224221e-05
-3.720219729915378e-05
-4.5469352254521147e-05
-6.200366216525588e-05
-7.85379720759906e-05
-5.9247943846800084e-05
-5.098078889143272e-05
-5.3736507209888505e-05
-3.169076066224221e-05
-3.169076066224221e-05
-4.5469352254521147e-05
-6.200366216525588e-05
-7.027081712062322e-05
-3.995791561760957e-05
7.02708171206219e-05
0.00022459104295414594
0.0004064684519722279
0.0005800787060349425
0.0007481775234607456
0.0009576121156633854
0.0011422452429999228
0.0009879250171663987
0.0003293083390554659
-0.0007729789883268486
-0.0019000677805752653
-0.002244532570382239
-0.0020433651331349667
-0.001789839047837034
-0.0015556029907682917
-0.00130207690547036
-0.000629681635767148
-0.0003485983672846577
-0.00019152242313267784
-9.78280003051811e-05
-7.57822537575348e-05
-3.4446478980697995e-05
1.3778591592272275e-06
2.8935042343785094e-05
6.475938048371032e-05
8.956084534981241e-05
9.507228198672396e-05
0.00010885087357900291
0.00013089662012664922
0.00014191949340047234
0.0001556980849927513
0.000172232394903486
0.00018049954985885336
0.00016672095826657444
0.00017498811322194178
0.00020254529640649968
0.0002190796063172344
0.00022734676127260172
0.0002493925078202481
0.00026592681773098274
0.0002769496910048059
0.000301751155870908
0.00030450687418936376
0.000301751155870908
0.00032104118410009855
0.0003485983672846564
0.00037064411383230263
0.00037891126878767
0.0004092241702906837
0.0004340256351567857
0.00042024704356450677
0.0004422927901121532
0.0004726056916151668
0.000469849973296711
0.0005111857480735478
0.0005414986495765614
0.0005663001144426635
0.0006021244525825888
0.0006159030441748677
0.0006351930724040583
0.0006599945372701603
0.0006655059739070718
0.0006737731288624392
0.000687551720454718
0.0006985745937285414
0.000717864621957732
0.0007371546501869223
0.0007371546501869223
0.0007316432135500107
0.0007426660868238338
0.0007426660868238338
0.0007206203402761877
0.0006847960021362622
0.0006186587624933234
0.000560788677805752
0.00048362856488898997
0.00042575848020141833
0.00034584264896620056
0.0002824611276417174
0.0002383696345464249
0.00019427814145113231
0.00013640805676356078
8.956084534981241e-05
5.373650720988717e-05
2.8935042343785094e-05
-2.342360570687485e-05
-4.5469352254521147e-05
-5.3736507209888505e-05
-7.85379720759906e-05
-8.956084534981374e-05
-8.129369039444639e-05
-7.57822537575348e-05
-6.475938048371164e-05
-7.027081712062322e-05
-8.956084534981374e-05
-0.00010609515526054846
-0.00012538518348973897
-0.00010609515526054846
-8.956084534981374e-05
-9.507228198672531e-05
-8.680512703135793e-05
-8.404940871290214e-05
-8.404940871290214e-05
-8.680512703135793e-05
-8.680512703135793e-05
-0.00010885087357900426
-0.00011160659189746003
-0.00010885087357900426
-8.956084534981374e-05
-7.302653543907902e-05
-6.200366216525588e-05
-7.027081712062322e-05
-6.475938048371164e-05
-6.200366216525588e-05
-7.027081712062322e-05
-7.85379720759906e-05
-8.129369039444639e-05
-6.751509880216745e-05
-5.098078889143272e-05
-2.066788738841907e-05
-6.889295796140132e-06
6.8892957961388014e-06
4.133577477683014e-06
-4.133577477684346e-06
1.7912169069961946e-05
4.82250705729756e-05
7.30265354390777e-05
0.00010609515526054714
0.00010885087357900291
8.956084534981241e-05
6.200366216525454e-05
4.546935225451981e-05
2.8935042343785094e-05
2.066788738841773e-05
4.546935225451981e-05
4.271363393606403e-05
2.3423605706873515e-05
-1.7912169069963278e-05
-3.995791561760957e-05
-3.4446478980697995e-05
-4.8225070572976926e-05
-4.8225070572976926e-05
-6.475938048371164e-05
-8.129369039444639e-05
-8.680512703135793e-05
-7.027081712062322e-05
-5.6492225528344285e-05
-5.6492225528344285e-05
-5.6492225528344285e-05
-6.751509880216745e-05
-7.85379720759906e-05
-7.302653543907902e-05
-6.475938048371164e-05
8.68051270313566e-05
0.00024388107118333642
0.00041197988860913943
0.0005800787060349425
0.0007233760585946433
0.0009410778057526506
0.0010981537499046305
0.0007950247348744939
6.8892957961388014e-06
-0.001186336736095217
-0.0020461208514534223
-0.002131548119325552
-0.0019303806820782797
-0.0017071674982833604
-0.0014646642862592512
-0.0012001153276874961
-0.0008804520027466246
-0.0005525215228503861
-0.0003100183108262768
-0.0001777438315403989
-0.00010885087357900426
-6.475938048371164e-05
-2.066788738841907e-05
9.64501411459459e-06
2.3423605706873515e-05
3.9957915617608246e-05
6.200366216525454e-05
8.129369039444505e-05
9.23165636682682e-05
9.23165636682682e-05
0.00011711802853437029
0.00012814090180819342
0.00014743093003738393
0.00015845380331120705
0.0001556980849927513
0.00015845380331120705
0.00017774383154039756
0.00019427814145113231
0.0002190796063172344
0.00022459104295414594
0.00023285819790951333
0.0002549039444571596
0.0002576596627756154
0.00027970540932326175
0.0002989954375524522
0.00031001831082627527
0.00032655262073701005
0.00034584264896620056
0.00037064411383230263
0.00038717842374303736
0.00038717842374303736
0.00038717842374303736
0.00041473560692759526
0.0004588271000228878
0.0004808728465705341
0.0005029185931181804
0.0005304757763027383
0.0005580329594872961
0.0005911015793087656
0.0006048801709010444
0.0006021244525825888
0.0005938572976272215
0.0006048801709010444
0.0006296816357671465
0.0006682616922255276
0.0007123531853208202
0.0007151089036392759
0.0007095974670023644
0.0007040860303654528
0.0006985745937285414
0.000676528847180895
0.0006544831006332488
0.0006351930724040583
0.0006159030441748677
0.0005359872129396498
0.0004588271000228878
0.00040371273365377215
0.0003430869306477448
0.00026041538109407124
0.00020530101472495543
0.00015845380331120705
8.404940871290084e-05
4.546935225451981e-05
4.546935225451981e-05
1.5156450751506162e-05
-2.6179324025330647e-05
-3.720219729915378e-05
-3.4446478980697995e-05
-3.4446478980697995e-05
-5.6492225528344285e-05
-6.751509880216745e-05
-7.027081712062322e-05
-8.129369039444639e-05
-8.956084534981374e-05
-9.78280003051811e-05
-8.404940871290214e-05
-9.231656366826955e-05
-0.00013089662012665053
-0.00011160659189746003
-0.00010058371862363688
-9.78280003051811e-05
-8.680512703135793e-05
-7.57822537575348e-05
-7.027081712062322e-05
-5.098078889143272e-05
-5.3736507209888505e-05
-7.302653543907902e-05
-8.956084534981374e-05
-9.78280003051811e-05
-7.027081712062322e-05
-5.3736507209888505e-05
-5.9247943846800084e-05
-6.200366216525588e-05
-6.751509880216745e-05
-6.200366216525588e-05
-5.098078889143272e-05
-4.2713633936065354e-05
-3.995791561760957e-05
-4.2713633936065354e-05
-1.240073243305171e-05
-6.889295796140132e-06
-1.240073243305171e-05
6.8892957961388014e-06
2.3423605706873515e-05
9.64501411459459e-06
5.098078889143139e-05
9.23165636682682e-05
0.00010885087357900291
0.00010058371862363556
8.68051270313566e-05
6.475938048371032e-05
7.30265354390777e-05
7.30265354390777e-05
5.098078889143139e-05
5.098078889143139e-05
4.546935225451981e-05
-5.9247943846800084e-05
-6.475938048371164e-05
-5.098078889143272e-05
-4.2713633936065354e-05
-5.098078889143272e-05
-6.475938048371164e-05
-5.9247943846800084e-05
-7.302653543907902e-05
-6.475938048371164e-05
-5.3736507209888505e-05
-8.129369039444639e-05
-7.85379720759906e-05
-7.57822537575348e-05
-8.404940871290214e-05
-8.129369039444639e-05
-3.4446478980697995e-05
6.200366216525454e-05
0.00017774383154039756
0.00033206405737392166
0.0005222086213473709
0.0007095974670023644
0.0009190320592050041
0.001089886594949263
0.00097414642557412
0.0003568655222400236
-0.000745421805142291
-0.0018284191042954152
-0.00212603668268864
-0.001960693583581293
-0.001742991836423286
-0.0015170229343099112
-0.0012717640039673465
-0.0009824135805294888
-0.0006241701991302363
-0.00036788839551384826
-0.00019152242313267784
-8.956084534981374e-05
-7.57822537575348e-05
-5.9247943846800084e-05
-2.342360570687485e-05
9.64501411459459e-06
3.169076066224089e-05
5.373650720988717e-05
9.23165636682682e-05
9.782800030517979e-05
0.00010609515526054714
0.00011711802853437029
0.00012814090180819342
0.00014467521171892812
0.00016120952162966288
0.00016120952162966288
0.00016396523994811866
0.00018876670481422076
0.00020530101472495543
0.00019152242313267648
0.0001970338597695881
0.00022734676127260172
0.0002549039444571596
0.0002741939726863501
0.0002934840009155406
0.00029623971923399637
0.00027970540932326175
0.00029623971923399637
0.0003348197756923775
0.0003596212405584795
0.0003844227054245816
0.0004009570153353164
0.00042300276188296266
0.0004395370717936973
0.000469849973296711
0.0004891400015259016
0.0005029185931181804
0.0005359872129396498
0.0005442543678950173
0.0005800787060349425
0.0006103916075379561
0.0006241701991302349
0.0006269259174486908
0.000637948790722514
0.0006627502555886161
0.0006572388189517045
0.0006737731288624392
0.000687551720454718
0.000676528847180895
0.0006599945372701603
0.0006710174105439835
0.0006820402838178067
0.0006627502555886161
0.0006324373540856024
0.0005883458609903097
0.0005277200579842825
0.0004615828183413437
0.00038993414206149314
0.000315529747463187
0.00026041538109407124
0.00019427814145113231
0.00013089662012664922
8.956084534981241e-05
4.546935225451981e-05
2.6179324025329308e-05
1.2400732433050376e-05
-1.7912169069963278e-05
-4.5469352254521147e-05
-7.027081712062322e-05
-9.231656366826955e-05
-8.680512703135793e-05
-8.680512703135793e-05
-8.956084534981374e-05
-9.78280003051811e-05
-0.00014743093003738526
-0.00016396523994811996
-0.00011436231021591582
-8.956084534981374e-05
-9.231656366826955e-05
-0.00010058371862363688
-9.78280003051811e-05
-9.507228198672531e-05
-8.956084534981374e-05
-9.231656366826955e-05
-9.507228198672531e-05
-9.507228198672531e-05
-0.00011160659189746003
-0.00010885087357900426
-0.00010333943694209268
-9.78280003051811e-05
-7.302653543907902e-05
-6.751509880216745e-05
-8.129369039444639e-05
-8.404940871290214e-05
-9.231656366826955e-05
-8.956084534981374e-05
-5.9247943846800084e-05
-3.995791561760957e-05
-2.342360570687485e-05
-2.6179324025330647e-05
-3.4446478980697995e-05
-5.098078889143272e-05
-3.4446478980697995e-05
1.5156450751506162e-05
6.751509880216611e-05
0.00010333943694209132
0.00011711802853437029
9.23165636682682e-05
6.751509880216611e-05
2.8935042343785094e-05
2.3423605706873515e-05
2.3423605706873515e-05
9.64501411459459e-06
-2.066788738841907e-05
-2.342360570687485e-05
-1.240073243305171e-05
-4.133577477684346e-06
-1.7912169069963278e-05
-5.9247943846800084e-05
-7.302653543907902e-05
-8.404940871290214e-05
-8.129369039444639e-05
-6.475938048371164e-05
-6.475938048371164e-05
-8.956084534981374e-05
-9.231656366826955e-05
-0.00010058371862363688
-0.00011436231021591582
-0.00010885087357900426
-8.129369039444639e-05
-8.956084534981374e-05
-7.302653543907902e-05
-1.377859159228559e-06
9.507228198672396e-05
0.0002576596627756154
0.0004533156633859763
0.0006214144808117793
0.0008253376363775078
0.0010320165102616916
0.0009548563973449294
0.0004064684519722279
-0.000615903044174869
-0.0017622818646524767
-0.002186662485694668
-0.0020406094148165107
-0.0018091290760662245
-0.001585915892271306
-0.0013599469901579312
-0.0010953980315861755
-0.0007343989318684678
-0.00044504850843061025
-0.00022734676127260308
-0.00011160659189746003
-0.00012538518348973897
-0.00010333943694209268
-3.720219729915378e-05
-6.889295796140132e-06
2.066788738841773e-05
5.098078889143139e-05
6.200366216525454e-05
7.853797207598924e-05
0.00010058371862363556
0.0001253851834897376
0.00013089662012664922
0.00013365233844510492
0.0001253851834897376
0.00014191949340047234
0.00016120952162966288
0.00019427814145113231
0.00020530101472495543
0.00020805673304341124
0.000210812451361867
0.00022459104295414594
0.0002383696345464249
0.000263171099412527
0.0002934840009155406
0.000315529747463187
0.0003127740291447311
0.000340331212329289
0.00035410980392156795
0.0003375754940108332
0.00037615555046921414
0.0004064684519722279
0.0004422927901121532
0.0004615828183413437
0.0004670942549782553
0.00048362856488898997
0.0005056743114366363
0.0005304757763027383
0.0005387429312581057
0.0005497658045319286
0.0005800787060349425
0.0006186587624933234
0.000599368734264133
0.0005966130159456772
0.0006269259174486908
0.0006544831006332488
0.0006655059739070718
0.000679284565499351
0.0006710174105439835
0.0006572388189517045
0.0006407045090409697
0.0006296816357671465
0.000637948790722514
0.0006159030441748677
0.000560788677805752
0.000508430029755092
0.0004533156633859763
0.0003733998321507585
0.0003293083390554659
0.0002852168459601733
0.00022734676127260172
0.00016120952162966288
8.956084534981241e-05
3.169076066224089e-05
1.7912169069961946e-05
1.5156450751506162e-05
-2.6179324025330647e-05
-5.3736507209888505e-05
-4.8225070572976926e-05
-6.200366216525588e-05
-8.404940871290214e-05
-9.78280003051811e-05
-0.00010333943694209268
-7.85379720759906e-05
-7.57822537575348e-05
-7.57822537575348e-05
-8.680512703135793e-05
-0.00011160659189746003
-9.507228198672531e-05
-8.680512703135793e-05
-9.78280003051811e-05
-0.0001226294651712832
-0.00010333943694209268
-8.129369039444639e-05
-7.85379720759906e-05
-0.00011160659189746003
-0.0001171180285343716
-7.027081712062322e-05
-6.751509880216745e-05
-5.3736507209888505e-05
-5.3736507209888505e-05
-7.027081712062322e-05
-5.098078889143272e-05
-3.4446478980697995e-05
-3.995791561760957e-05
-4.2713633936065354e-05
-3.720219729915378e-05
-9.64501411459592e-06
-1.377859159228559e-06
-6.889295796140132e-06
1.3778591592272275e-06
6.8892957961388014e-06
2.066788738841773e-05
5.098078889143139e-05
7.853797207598924e-05
8.956084534981241e-05
9.507228198672396e-05
0.00010609515526054714
8.404940871290084e-05
7.30265354390777e-05
7.853797207598924e-05
6.475938048371032e-05
4.82250705729756e-05
1.2400732433050376e-05
-2.066788738841907e-05
-2.342360570687485e-05
-2.342360570687485e-05
-2.6179324025330647e-05
-4.2713633936065354e-05
-5.098078889143272e-05
-6.475938048371164e-05
-7.027081712062322e-05
-6.475938048371164e-05
-5.9247943846800084e-05
-7.027081712062322e-05
-7.302653543907902e-05
-5.9247943846800084e-05
-6.200366216525588e-05
-7.57822537575348e-05
-9.507228198672531e-05
-8.129369039444639e-05
4.133577477683014e-06
0.00015845380331120705
0.00031001831082627527
0.0004918957198443572
0.000676528847180895
0.0008639176928358884
0.0010623294117647053
0.0010209936369878683
0.000456071381704432
-0.0006076358892195017
-0.0017815718928816668
-0.0022142196688792254
-0.002062655161364157
-0.0018118847943846804
-0.0015666258640421155
-0.0013158554970626386
-0.0010320165102616929
-0.0006737731288624405
-0.00040371273365377345
-0.00023836963454642628
-0.00014191949340047367
-9.231656366826955e-05
-6.200366216525588e-05
-1.5156450751507488e-05
4.271363393606403e-05
2.3423605706873515e-05
3.9957915617608246e-05
9.507228198672396e-05
0.00011436231021591448
0.00012814090180819342
0.00013916377508201656
0.00013365233844510492
0.00014467521171892812
0.0001556980849927513
0.00016396523994811866
0.00019152242313267648
0.00018876670481422076
0.00019978957808804387
0.00020805673304341124
0.0002218353246356902
0.00021632388799877858
0.0002190796063172344
0.0002576596627756154
0.00027970540932326175
0.00030450687418936376
0.00032379690241855427
0.0003375754940108332
0.000340331212329289
0.0003623769588769353
0.0003844227054245816
0.00042024704356450677
0.0004450485084306089
0.0004422927901121532
0.0004505599450675205
0.000456071381704432
0.0004891400015259016
0.0005194529030289152
0.0005387429312581057
0.0005635443961242077
0.0005800787060349425
0.000585590142671854
0.0006076358892195001
0.0006269259174486908
0.0006324373540856024
0.0006462159456778814
0.0006544831006332488
0.0006434602273594254
0.0006572388189517045
0.000676528847180895
0.0006627502555886161
0.0006186587624933234
0.0006048801709010444
0.0005938572976272215
0.000560788677805752
0.0005029185931181804
0.0004588271000228878
0.0003954455786984048
0.00031001831082627527
0.00024112535286488067
0.00018049954985885336
0.00012814090180819342
8.956084534981241e-05
2.3423605706873515e-05
1.3778591592272275e-06
1.5156450751506162e-05
-2.066788738841907e-05
-4.8225070572976926e-05
-7.027081712062322e-05
-8.956084534981374e-05
-9.507228198672531e-05
-0.00010609515526054846
-0.0001226294651712832
-0.00010058371862363688
-0.00010885087357900426
-0.00012538518348973897
-0.00014191949340047367
-0.0001198737468528274
-0.0001171180285343716
-0.00014467521171892948
-0.00014743093003738526
-0.00012814090180819475
-0.0001226294651712832
-0.0001198737468528274
-8.404940871290214e-05
-6.751509880216745e-05
-8.680512703135793e-05
-9.507228198672531e-05
-9.507228198672531e-05
-7.302653543907902e-05
-8.129369039444639e-05
-9.507228198672531e-05
-0.00010609515526054846
-8.404940871290214e-05
-7.57822537575348e-05
-7.302653543907902e-05
-3.720219729915378e-05
-2.066788738841907e-05
-1.7912169069963278e-05
-3.995791561760957e-05
-3.720219729915378e-05
-2.066788738841907e-05
6.8892957961388014e-06
5.098078889143139e-05
7.30265354390777e-05
6.751509880216611e-05
5.649222552834297e-05
4.546935225451981e-05
2.066788738841773e-05
2.066788738841773e-05
9.64501411459459e-06
-4.133577477684346e-06
-2.6179324025330647e-05
-2.8935042343786426e-05
-2.6179324025330647e-05
-5.3736507209888505e-05
-7.57822537575348e-05
-7.57822537575348e-05
-8.680512703135793e-05
-9.78280003051811e-05
-0.0001198737468528274
-0.0001198737468528274
-9.78280003051811e-05
-0.00010885087357900426
-0.0001226294651712832
-0.00013089662012665053
-0.0001226294651712832
-0.00010885087357900426
-0.00010609515526054846
-9.78280003051811e-05
-2.8935042343786426e-05
9.23165636682682e-05
0.0002135681696803228
0.000365132677195391
0.0005359872129396498
0.0007316432135500107
0.0010017036087586776
0.001103665186541542
0.0007123531853208202
-0.00024112535286488197
-0.0015225343709468226
-0.0021949296406500347
-0.0018614877241168843
-0.0016382745403219659
-0.0014371071030746935
-0.001194603891050584
-0.0008556505378805224
-0.0005249643396658282
-0.00030175115587090934
-0.00015294236667429682
-0.0001198737468528274
-0.0001171180285343716
-8.680512703135793e-05
-6.200366216525588e-05
-2.342360570687485e-05
1.3778591592272275e-06
1.5156450751506162e-05
3.444647898069667e-05
3.444647898069667e-05
5.649222552834297e-05
9.507228198672396e-05
0.00011987374685282605
0.00013640805676356078
0.00013640805676356078
0.00015018664835583973
0.00015845380331120705
0.0001694766765850302
0.00017498811322194178
0.0001694766765850302
0.00016396523994811866
0.0001832552681773092
0.00024388107118333642
0.0002686825360494386
0.0002741939726863501
0.000301751155870908
0.0002989954375524522
0.00029072828259708476
0.0003127740291447311
0.000340331212329289
0.00037891126878767
0.0004092241702906837
0.0004092241702906837
0.00041197988860913943
0.00041749132524605104
0.0004505599450675205
0.00048362856488898997
0.0004946514381628131
0.0005029185931181804
0.0005139414663920035
0.0005442543678950173
0.0005745672693980309
0.0006159030441748677
0.0006214144808117793
0.000637948790722514
0.0006655059739070718
0.0006655059739070718
0.0006710174105439835
0.000679284565499351
0.0006572388189517045
0.0006462159456778814
0.0006489716639963371
0.0006407045090409697
0.0006103916075379561
0.0005663001144426635
0.0005139414663920035
0.0004643385366597993
0.0003982012970168605
0.00029623971923399637
0.0002190796063172344
0.0001556980849927513
7.02708171206219e-05
2.8935042343785094e-05
-9.64501411459592e-06
-4.2713633936065354e-05
-5.9247943846800084e-05
-7.302653543907902e-05
-0.00010058371862363688
-0.0001198737468528274
-0.0001171180285343716
-0.00012538518348973897
-0.0001364080567635621
-0.0001364080567635621
-0.0001391637750820179
-0.00014191949340047367
-0.00014467521171892948
-0.0001612095216296642
-0.00015294236667429682
-0.000150186648355841
-0.00015569808499275262
-0.00014191949340047367
-0.00016947667658503157
-0.0001612095216296642
-0.0001584538033112084
-0.00014467521171892948
-0.0001171180285343716
-0.00010609515526054846
-0.00010333943694209268
-0.00010885087357900426
-0.0001198737468528274
-0.0001364080567635621
-0.00012814090180819475
-0.0001198737468528274
-0.00011160659189746003
-0.00010333943694209268
-0.00010609515526054846
-0.00010333943694209268
-8.129369039444639e-05
-7.302653543907902e-05
-6.475938048371164e-05
-7.57822537575348e-05
-7.85379720759906e-05
-4.5469352254521147e-05
-6.889295796140132e-06
4.82250705729756e-05
5.649222552834297e-05
2.6179324025329308e-05
-4.133577477684346e-06
-2.066788738841907e-05
-1.5156450751507488e-05
-4.133577477684346e-06
-1.5156450751507488e-05
-2.342360570687485e-05
-4.2713633936065354e-05
-7.027081712062322e-05
-9.507228198672531e-05
-0.0001171180285343716
-0.0001198737468528274
-0.00011436231021591582
-0.00011160659189746003
-0.00012814090180819475
-0.0001391637750820179
-0.00015569808499275262
-0.0001584538033112084
-0.00014467521171892948
-0.0001336523384451063
-0.0001364080567635621
-0.0001336523384451063
-0.00014191949340047367
-0.00013089662012665053
-4.5469352254521147e-05
0.00010058371862363556
0.00026041538109407124
0.00042851419851987416
0.0005883458609903097
0.0007922690165560381
0.0010457951018539703
0.0009961921721217662
0.00040371273365377215
-0.000745421805142291
-0.0019524264286259257
-0.0022858683451590757
-0.002090212344548715
-0.001891800625619898
-0.0017071674982833604
-0.0014894657511253533
-0.0012166496375982305
-0.0008501391012436108
-0.0005607886778057534
-0.0003844227054245829
-0.0002604153810940725
-0.00018049954985885472
-0.0001391637750820179
-8.680512703135793e-05
-7.027081712062322e-05
-6.475938048371164e-05
-3.4446478980697995e-05
-1.240073243305171e-05
1.5156450751506162e-05
2.066788738841773e-05
3.169076066224089e-05
5.9247943846798756e-05
5.9247943846798756e-05
7.578225375753347e-05
9.23165636682682e-05
7.853797207598924e-05
0.00010058371862363556
0.00013365233844510492
0.00015018664835583973
0.00016672095826657444
0.00017498811322194178
0.00018049954985885336
0.00016120952162966288
0.00019427814145113231
0.0002383696345464249
0.0002549039444571596
0.0002493925078202481
0.00025214822613870384
0.00027970540932326175
0.0002879725642786291
0.00032379690241855427
0.0003485983672846564
0.0003430869306477448
0.00035410980392156795
0.0004092241702906837
0.0004533156633859763
0.00047536140993362247
0.0004670942549782553
0.0004863842832074457
0.0005111857480735478
0.000508430029755092
0.0005194529030289152
0.0005635443961242077
0.0005883458609903097
0.0006131473258564118
0.0005938572976272215
0.0005828344243533982
0.0005828344243533982
0.0006131473258564118
0.0006324373540856024
0.0006159030441748677
0.0005690558327611192
0.000508430029755092
0.0004726056916151668
0.0004367813534752416
0.000392689860379949
0.0003072625925078196
0.00021632388799877858
0.0001694766765850302
0.0001253851834897376
6.475938048371032e-05
1.3778591592272275e-06
-3.995791561760957e-05
-6.751509880216745e-05
-9.231656366826955e-05
-0.00010885087357900426
-0.0001226294651712832
-0.0001336523384451063
-0.00016672095826657574
-0.0001777438315403989
-0.00016672095826657574
-0.00016396523994811996
-0.0001777438315403989
-0.0002080567330434125
-0.0002604153810940725
-0.00022459104295414727
-0.00017223239490348733
-0.00016396523994811996
-0.0001777438315403989
-0.00018325526817731047
-0.00018601098649576628
-0.0001777438315403989
-0.00018601098649576628
-0.00019427814145113364
-0.00016672095826657574
-0.0001777438315403989
-0.0001997895780880452
-0.00018601098649576628
-0.00016947667658503157
-0.00014467521171892948
-0.0001391637750820179
-0.000150186648355841
-0.00016947667658503157
-0.00016947667658503157
-0.0001364080567635621
-0.00010058371862363688
-9.78280003051811e-05
-9.78280003051811e-05
-8.404940871290214e-05
-9.507228198672531e-05
-9.231656366826955e-05
-6.200366216525588e-05
-1.7912169069963278e-05
-1.377859159228559e-06
-1.240073243305171e-05
1.3778591592272275e-06
-1.240073243305171e-05
-4.8225070572976926e-05
-4.8225070572976926e-05
-4.2713633936065354e-05
-5.3736507209888505e-05
-7.57822537575348e-05
-8.680512703135793e-05
-0.00013089662012665053
-0.00016672095826657574
-0.0001364080567635621
-0.00012814090180819475
-0.0001584538033112084
-0.00019152242313267784
-0.0001777438315403989
-0.00018601098649576628
-0.00019152242313267784
-0.00018601098649576628
-0.00019427814145113364
-0.00018325526817731047
-0.00016947667658503157
-0.00017498811322194308
-0.0001777438315403989
-0.0001584538033112084
-7.302653543907902e-05
7.578225375753347e-05
0.0002383696345464249
0.0004009570153353164
0.0005663001144426635
0.0007922690165560381
0.0009796578622110316
0.0008694291294728002
0.00024663678950179223
-0.0008611619745174342
-0.002024075104905776
-0.002412631387808042
-0.0022555554436560626
-0.0020185636682688644
-0.0018008619211108575
-0.0015638701457236597
-0.0012717640039673465
-0.0009135206225680943
-0.0006048801709010458
-0.00040646845197222917
-0.0002549039444571609
-0.00016947667658503157
-0.00015294236667429682
-0.0001391637750820179
-0.00011160659189746003
-7.85379720759906e-05
-3.4446478980697995e-05
-4.133577477684346e-06
-1.240073243305171e-05
-1.7912169069963278e-05
2.3423605706873515e-05
5.649222552834297e-05
7.578225375753347e-05
7.578225375753347e-05
5.9247943846798756e-05
6.475938048371032e-05
0.00010609515526054714
0.00011160659189745871
0.00011436231021591448
0.00012814090180819342
0.00014191949340047234
0.00016396523994811866
0.00019427814145113231
0.000210812451361867
0.000210812451361867
0.00023561391622796914
0.00025214822613870384
0.00026592681773098274
0.0002824611276417174
0.00031001831082627527
0.0003127740291447311
0.00030450687418936376
0.00034584264896620056
0.0003954455786984048
0.0004422927901121532
0.0004505599450675205
0.0004588271000228878
0.0004643385366597993
0.0005029185931181804
0.0005359872129396498
0.000560788677805752
0.000585590142671854
0.0005773229877164866
0.0005828344243533982
0.0005938572976272215
0.0005883458609903097
0.0005690558327611192
0.0005883458609903097
0.0006076358892195001
0.0005911015793087656
0.0005690558327611192
0.000547010086213473
0.0004974071564812689
0.0004670942549782553
0.00042024704356450677
0.00035135408560311223
0.0002852168459601733
0.0002218353246356902
0.00013916377508201656
7.578225375753347e-05
3.169076066224089e-05
-3.4446478980697995e-05
-7.027081712062322e-05
-8.956084534981374e-05
-0.00010885087357900426
-0.00014467521171892948
-0.0001612095216296642
-0.00016396523994811996
-0.0001777438315403989
-0.00018325526817731047
-0.00019427814145113364
-0.00018601098649576628
-0.00018876670481422206
-0.00019703385976958942
-0.00019427814145113364
-0.0002108124513618684
-0.00021632388799877996
-0.0002108124513618684
-0.00022734676127260308
-0.0002108124513618684
-0.0002108124513618684
-0.00020530101472495681
-0.00018601098649576628
-0.00019152242313267784
-0.00019427814145113364
-0.00017498811322194308
-0.00016396523994811996
-0.00018325526817731047
-0.00016672095826657574
-0.00015294236667429682
-0.00015294236667429682
-0.00014191949340047367
-0.00012814090180819475
-0.00012538518348973897
-0.0001171180285343716
-9.78280003051811e-05
-9.78280003051811e-05
-7.302653543907902e-05
-6.200366216525588e-05
-3.4446478980697995e-05
1.2400732433050376e-05
2.6179324025329308e-05
4.271363393606403e-05
1.5156450751506162e-05
9.64501411459459e-06
9.64501411459459e-06
-1.7912169069963278e-05
-3.169076066224221e-05
-4.8225070572976926e-05
-4.8225070572976926e-05
-4.8225070572976926e-05
-6.200366216525588e-05
-7.302653543907902e-05
-9.78280003051811e-05
-0.0001336523384451063
-0.00014191949340047367
-0.0001391637750820179
-0.000150186648355841
-0.00014191949340047367
-0.00014467521171892948
-0.0001391637750820179
-0.0001226294651712832
-0.00012814090180819475
-0.00014743093003738526
-0.0001584538033112084
-0.00016396523994811996
-0.00015294236667429682
-0.0001198737468528274
-2.066788738841907e-05
0.00013365233844510492
0.000301751155870908
0.0004643385366597993
0.0006269259174486908
0.0008143147631036844
0.0009328106507972832
0.000679284565499351
-6.200366216525588e-05
-0.0012194053559166863
-0.0022555554436560626
-0.002442944289311056
-0.0022252425421530487
-0.001988250766765851
-0.001748503273060197
-0.001481198596169986
-0.0011780695811398495
-0.0008115590447852298
-0.000500162874799726
-0.0002962397192339978
-0.00017498811322194308
-0.00012814090180819475
-8.680512703135793e-05
-5.6492225528344285e-05
-3.720219729915378e-05
-1.240073243305171e-05
9.64501411459459e-06
1.2400732433050376e-05
2.066788738841773e-05
4.82250705729756e-05
7.578225375753347e-05
9.23165636682682e-05
0.00010058371862363556
0.00011987374685282605
0.00011160659189745871
0.00010885087357900291
0.00012814090180819342
0.00015845380331120705
0.0001694766765850302
0.0001832552681773092
0.00019152242313267648
0.00019978957808804387
0.0002190796063172344
0.0002769496910048059
0.00030450687418936376
0.00030450687418936376
0.0003182854657816428
0.00034584264896620056
0.0003623769588769353
0.0003733998321507585
0.00038717842374303736
0.0003982012970168605
0.00042575848020141833
0.000456071381704432
0.0004781171282520784
0.00048362856488898997
0.0005056743114366363
0.0005387429312581057
0.0005745672693980309
0.0005938572976272215
0.0005966130159456772
0.000599368734264133
0.0006351930724040583
0.0006351930724040583
0.0006655059739070718
0.0006627502555886161
0.0006462159456778814
0.000637948790722514
0.000637948790722514
0.0006489716639963371
0.0006241701991302349
0.0005883458609903097
0.0005525215228503846
0.0004891400015259016
0.00041197988860913943
0.00035135408560311223
0.00031001831082627527
0.00024112535286488067
0.00016396523994811866
9.782800030517979e-05
5.098078889143139e-05
9.64501411459459e-06
-1.7912169069963278e-05
-2.8935042343786426e-05
-4.5469352254521147e-05
-7.57822537575348e-05
-0.00010058371862363688
-0.00012538518348973897
-0.0001364080567635621
-0.00012814090180819475
-0.00014743093003738526
-0.0001612095216296642
-0.0001584538033112084
-0.000150186648355841
-0.00017498811322194308
-0.00016947667658503157
-0.00014467521171892948
-0.0001364080567635621
-0.00014191949340047367
-0.00014743093003738526
-0.0001364080567635621
-0.00013089662012665053
-0.0001584538033112084
-0.00017498811322194308
-0.00017498811322194308
-0.0001584538033112084
-0.00014743093003738526
-0.0001336523384451063
-0.0001171180285343716
-0.00010885087357900426
-0.00010058371862363688
-0.00012538518348973897
-0.00010058371862363688
-0.00010609515526054846
-7.027081712062322e-05
-4.8225070572976926e-05
-3.720219729915378e-05
-3.720219729915378e-05
-4.8225070572976926e-05
-3.169076066224221e-05
-1.7912169069963278e-05
-4.133577477684346e-06
2.8935042343785094e-05
7.02708171206219e-05
8.404940871290084e-05
6.751509880216611e-05
2.8935042343785094e-05
6.8892957961388014e-06
6.8892957961388014e-06
-1.5156450751507488e-05
-2.342360570687485e-05
-3.995791561760957e-05
-6.200366216525588e-05
-6.200366216525588e-05
-8.680512703135793e-05
-0.0001171180285343716
-0.0001171180285343716
-0.00010609515526054846
-0.0001171180285343716
-0.00014191949340047367
-0.0001391637750820179
-0.00010058371862363688
-0.00010333943694209268
-0.00011436231021591582
-0.0001171180285343716
-0.00011436231021591582
-0.0001364080567635621
-0.00013089662012665053
-0.00010885087357900426
-1.7912169069963278e-05
0.00012262946517128183
0.00027970540932326175
0.0004505599450675205
0.0006214144808117793
0.0008115590447852286
0.0009906807354848547
0.0008859634393835348
0.0002769496910048059
-0.0008280933546959645
-0.0019662050202182047
-0.002313425528343633
-0.002145326710917831
-0.001913846372167545
-0.001676854596780347
-0.0014123056382085914
-0.0010871308766308087
-0.000720620340276189
-0.0004422927901121546
-0.00024939250782024937
-0.00014467521171892948
-0.0001226294651712832
-0.00011436231021591582
-7.85379720759906e-05
-5.098078889143272e-05
-2.8935042343786426e-05
9.64501411459459e-06
4.271363393606403e-05
6.751509880216611e-05
7.30265354390777e-05
8.129369039444505e-05
9.507228198672396e-05
0.00010609515526054714
0.00011436231021591448
0.00012814090180819342
0.00014467521171892812
0.00016672095826657444
0.0001694766765850302
0.00016120952162966288
0.00016672095826657444
0.000172232394903486
0.00020530101472495543
0.0002576596627756154
0.000263171099412527
0.00026041538109407124
0.0002769496910048059
0.0002934840009155406
0.00032104118410009855
0.0003430869306477448
0.00035410980392156795
0.00037615555046921414
0.00038993414206149314
0.0004092241702906837
0.00041749132524605104
0.0004533156633859763
0.00048362856488898997
0.0004974071564812689
0.0005166971847104594
0.0005442543678950173
0.0005745672693980309
0.0005883458609903097
0.0005800787060349425
0.0005938572976272215
0.0005938572976272215
0.0005938572976272215
0.0006048801709010444
0.0005938572976272215
0.0005911015793087656
0.0006021244525825888
0.0006021244525825888
0.0005966130159456772
0.0005773229877164866
0.0005442543678950173
0.0005001628747997245
0.00042575848020141833
0.00035410980392156795
0.0002824611276417174
0.00022734676127260172
0.00017774383154039756
0.00011987374685282605
7.578225375753347e-05
4.271363393606403e-05
-1.240073243305171e-05
-6.200366216525588e-05
-7.57822537575348e-05
-8.680512703135793e-05
-9.507228198672531e-05
-0.0001171180285343716
-0.00014467521171892948
-0.00016947667658503157
-0.00015294236667429682
-0.000150186648355841
-0.0001612095216296642
-0.00015569808499275262
-0.0001391637750820179
-0.00014467521171892948
-0.0001612095216296642
-0.00016672095826657574
-0.00016672095826657574
-0.00016396523994811996
-0.00017223239490348733
-0.00016672095826657574
-0.0001584538033112084
-0.00015569808499275262
-0.00014743093003738526
-0.00013089662012665053
-0.00012538518348973897
-0.00014743093003738526
-0.00014743093003738526
-0.00014467521171892948
-0.00014743093003738526
-0.0001336523384451063
-0.00010885087357900426
-8.129369039444639e-05
-5.9247943846800084e-05
-5.3736507209888505e-05
-6.200366216525588e-05
-7.027081712062322e-05
-7.302653543907902e-05
-3.995791561760957e-05
-9.64501411459592e-06
4.133577477683014e-06
2.6179324025329308e-05
3.444647898069667e-05
3.444647898069667e-05
3.169076066224089e-05
9.64501411459459e-06
-2.342360570687485e-05
-1.7912169069963278e-05
-4.133577477684346e-06
6.8892957961388014e-06
-1.240073243305171e-05
-3.720219729915378e-05
-6.475938048371164e-05
-0.00010609515526054846
-0.0001584538033112084
-0.00016396523994811996
-0.0001391637750820179
-0.00011436231021591582
-0.00011436231021591582
-0.00011436231021591582
-0.0001171180285343716
-0.0001171180285343716
-0.00012814090180819475
-0.00013089662012665053
-0.0001171180285343716
-0.0001226294651712832
-0.0001364080567635621
-0.0001226294651712832
-4.2713633936065354e-05
0.00010333943694209132
0.00027970540932326175
0.0004615828183413437
0.0006103916075379561
0.00081707048142214
0.0010265050736247801
0.0009328106507972832
0.000315529747463187
-0.0008253376363775088
-0.001991006485084307
-0.0023382269932097363
-0.0021398152742809194
-0.001875266315709164
-0.0016548088502327005
-0.0014233285114824145
-0.0011394895246814685
-0.0007784904249637603
-0.00030175115587090934
-0.00023285819790951464
-0.00018049954985885472
-0.00012814090180819475
-0.00010058371862363688
-6.200366216525588e-05
-4.8225070572976926e-05
-3.4446478980697995e-05
4.133577477683014e-06
3.444647898069667e-05
4.82250705729756e-05
5.9247943846798756e-05
6.751509880216611e-05
7.578225375753347e-05
0.00010058371862363556
0.00010058371862363556
8.129369039444505e-05
9.782800030517979e-05
0.00013089662012664922
0.00016120952162966288
0.000172232394903486
0.00016120952162966288
0.00018601098649576498
0.0002135681696803228
0.00023010247959105753
0.0002549039444571596
0.0002383696345464249
0.000263171099412527
0.0002824611276417174
0.0003127740291447311
0.00032104118410009855
0.00032104118410009855
0.000340331212329289
0.000365132677195391
0.00041197988860913943
0.0004367813534752416
0.0004395370717936973
0.0004533156633859763
0.0004781171282520784
0.0005139414663920035
0.0005442543678950173
0.0005277200579842825
0.0005442543678950173
0.000585590142671854
0.0006159030441748677
0.0006076358892195001
0.0005938572976272215
0.0006048801709010444
0.0006296816357671465
0.0006296816357671465
0.0006214144808117793
0.0006186587624933234
0.0006021244525825888
0.0005800787060349425
0.0005525215228503846
0.0005029185931181804
0.0004450485084306089
0.00037615555046921414
0.0002769496910048059
0.0002218353246356902
0.00017498811322194178
0.00010885087357900291
3.9957915617608246e-05
-1.7912169069963278e-05
-5.9247943846800084e-05
-7.57822537575348e-05
-0.00010609515526054846
-0.00011436231021591582
-0.000150186648355841
-0.00015569808499275262
-0.0001612095216296642
-0.0001777438315403989
-0.00017498811322194308
-0.0001777438315403989
-0.00017498811322194308
-0.0001777438315403989
-0.00018049954985885472
-0.00018876670481422206
-0.00018049954985885472
-0.00018325526817731047
-0.00018325526817731047
-0.0001997895780880452
-0.0002218353246356915
-0.00022734676127260308
-0.00019152242313267784
-0.00016947667658503157
-0.00018601098649576628
-0.00018049954985885472
-0.0001612095216296642
-0.00017223239490348733
-0.00016672095826657574
-0.00016396523994811996
-0.0001584538033112084
-0.00014467521171892948
-0.0001391637750820179
-0.0001226294651712832
-0.0001226294651712832
-0.0001171180285343716
-0.0001171180285343716
-0.0001171180285343716
-9.507228198672531e-05
-8.129369039444639e-05
-5.098078889143272e-05
-9.64501411459592e-06
1.2400732433050376e-05
-4.133577477684346e-06
-2.6179324025330647e-05
-2.8935042343786426e-05
-5.6492225528344285e-05
-7.85379720759906e-05
-6.751509880216745e-05
-4.8225070572976926e-05
-5.098078889143272e-05
-7.027081712062322e-05
-0.00010058371862363688
-0.0001226294651712832
-0.00016396523994811996
-0.00017498811322194308
-0.00016672095826657574
-0.00017498811322194308
-0.00016396523994811996
-0.00016396523994811996
-0.00017498811322194308
-0.00018601098649576628
-0.00018876670481422206
-0.00015294236667429682
-0.000150186648355841
-0.00016947667658503157
-0.0001777438315403989
-0.00018325526817731047
-0.0001336523384451063
1.7912169069961946e-05
0.00016396523994811866
0.0003127740291447311
0.000469849973296711
0.0006627502555886161
0.001051306538490882
0.000753688960097657
-7.57822537575348e-05
-0.0013819927367055777
-0.0022776011902037084
-0.0023272041199359126
-0.002090212344548715
-0.0018587320057984289
-0.0016410302586404217
-0.0013902598916609454
-0.0010347722285801487
-0.0006930631570916311
-0.0004615828183413449
-0.00030175115587090934
-0.00021356816968032413
-0.00017223239490348733
-0.00015294236667429682
-0.0001336523384451063
-0.00010333943694209268
-7.57822537575348e-05
-3.995791561760957e-05
-1.5156450751507488e-05
9.64501411459459e-06
2.6179324025329308e-05
3.720219729915245e-05
5.9247943846798756e-05
5.098078889143139e-05
5.373650720988717e-05
7.853797207598924e-05
0.00010609515526054714
0.00012262946517128183
0.00011436231021591448
0.00011436231021591448
0.00013916377508201656
0.00015294236667429551
0.00016672095826657444
0.00019152242313267648
0.0001970338597695881
0.00019427814145113231
0.00020530101472495543
0.00022734676127260172
0.000263171099412527
0.00029623971923399637
0.00032379690241855427
0.0003430869306477448
0.0003596212405584795
0.0003733998321507585
0.00038717842374303736
0.0003982012970168605
0.00042851419851987416
0.0004670942549782553
0.0005029185931181804
0.0005166971847104594
0.0005139414663920035
0.0005249643396658268
0.0005222086213473709
0.0005525215228503846
0.0005883458609903097
0.0006076358892195001
0.0006021244525825888
0.0005718115510795751
0.0005690558327611192
0.0005690558327611192
0.0005773229877164866
0.0005580329594872961
0.0005387429312581057
0.0005580329594872961
0.0005304757763027383
0.00041197988860913943
0.00033206405737392166
0.0002549039444571596
0.00019152242313267648
0.00013365233844510492
7.02708171206219e-05
2.8935042343785094e-05
-1.7912169069963278e-05
-6.475938048371164e-05
-9.78280003051811e-05
-0.0001226294651712832
-0.00014743093003738526
-0.00016396523994811996
-0.0001612095216296642
-0.00016396523994811996
-0.00019427814145113364
-0.0002080567330434125
-0.00019152242313267784
-0.00021356816968032413
-0.00021632388799877996
-0.0001997895780880452
-0.0002108124513618684
-0.00023010247959105888
-0.0002521482261387052
-0.0002108124513618684
-0.00018876670481422206
-0.0001777438315403989
-0.00018876670481422206
-0.0002080567330434125
-0.0001997895780880452
-0.00018601098649576628
-0.0001777438315403989
-0.00018325526817731047
-0.00018876670481422206
-0.00018601098649576628
-0.0001777438315403989
-0.00016396523994811996
-0.00016947667658503157
-0.00018325526817731047
-0.0001777438315403989
-0.000150186648355841
-0.000150186648355841
-0.00014467521171892948
-0.00013089662012665053
-0.00011160659189746003
-0.00011160659189746003
-0.00010333943694209268
-7.85379720759906e-05
-4.8225070572976926e-05
-2.342360570687485e-05
-9.64501411459592e-06
-9.64501411459592e-06
-3.169076066224221e-05
-6.751509880216745e-05
-7.85379720759906e-05
-7.85379720759906e-05
-8.680512703135793e-05
-9.231656366826955e-05
-0.00010609515526054846
-0.0001198737468528274
-0.0001336523384451063
-0.00013089662012665053
-0.00017223239490348733
-0.00018876670481422206
-0.00017498811322194308
-0.00019152242313267784
-0.0002190796063172357
-0.00020530101472495681
-0.00018601098649576628
-0.00016672095826657574
-0.00018325526817731047
-0.00018049954985885472
-0.00019152242313267784
-0.00019427814145113364
-0.00017498811322194308
-0.00012814090180819475
6.8892957961388014e-06
0.0001694766765850302
0.0003430869306477448
0.0005056743114366363
0.000701330312046997
0.0009410778057526506
0.001007215045395589
0.0005635443961242077
-0.00040922417029068495
-0.0017071674982833604
-0.002382318486305028
-0.0023299598382543686
-0.002076433752956436
-0.0018366862592507824
-0.0016162287937743196
-0.0013379012436102852
-0.0009851692988479444
-0.0006655059739070732
-0.00046433853665980087
-0.0003100183108262768
-0.00023285819790951464
-0.00018876670481422206
-0.00016672095826657574
-0.00012538518348973897
-8.129369039444639e-05
-5.6492225528344285e-05
-4.8225070572976926e-05
-4.5469352254521147e-05
-3.4446478980697995e-05
1.3778591592272275e-06
3.169076066224089e-05
2.6179324025329308e-05
2.6179324025329308e-05
1.5156450751506162e-05
6.8892957961388014e-06
3.720219729915245e-05
8.404940871290084e-05
0.00010609515526054714
0.0001253851834897376
0.00014743093003738393
0.00015018664835583973
0.00015845380331120705
0.00015845380331120705
0.00016672095826657444
0.00019427814145113231
0.00020805673304341124
0.00023285819790951333
0.00024112535286488067
0.0002493925078202481
0.00029072828259708476
0.0003127740291447311
0.0003072625925078196
0.00033206405737392166
0.0003623769588769353
0.00037615555046921414
0.00040371273365377215
0.0004395370717936973
0.0004670942549782553
0.0004808728465705341
0.0004946514381628131
0.0005194529030289152
0.0005414986495765614
0.0005304757763027383
0.0005166971847104594
0.0005332314946211942
0.0005497658045319286
0.0005635443961242077
0.0005718115510795751
0.0005663001144426635
0.0005414986495765614
0.0004891400015259016
0.00047536140993362247
0.00043126991683832994
0.00036788839551384685
0.00029623971923399637
0.0002218353246356902
0.00015018664835583973
0.0001253851834897376
9.23165636682682e-05
2.6179324025329308e-05
-3.995791561760957e-05
-9.507228198672531e-05
-0.00010609515526054846
-0.00013089662012665053
-0.00017223239490348733
-0.00019703385976958942
-0.0002080567330434125
-0.00021356816968032413
-0.0002190796063172357
-0.00022459104295414727
-0.00021632388799877996
-0.00021632388799877996
-0.00023010247959105888
-0.00024388107118333775
-0.0002521482261387052
-0.00025765966277561676
-0.00025765966277561676
-0.00026592681773098404
-0.0002631710994125282
-0.00025765966277561676
-0.00023836963454642628
-0.00021356816968032413
-0.00020530101472495681
-0.0002080567330434125
-0.00022734676127260308
-0.0002218353246356915
-0.00021632388799877996
-0.00021356816968032413
-0.00020530101472495681
-0.0001997895780880452
-0.00019152242313267784
-0.00020254529640650095
-0.0001997895780880452
-0.00018049954985885472
-0.0001584538033112084
-0.00015294236667429682
-0.00015294236667429682
-0.00014191949340047367
-0.00014743093003738526
-0.000150186648355841
-0.0001364080567635621
-9.507228198672531e-05
-3.995791561760957e-05
-1.7912169069963278e-05
-2.6179324025330647e-05
-5.098078889143272e-05
-6.200366216525588e-05
-4.5469352254521147e-05
-4.8225070572976926e-05
-0.0001198737468528274
-0.00011160659189746003
-0.00010609515526054846
-0.00011160659189746003
-0.00014467521171892948
-0.00017498811322194308
-0.00020530101472495681
-0.00022459104295414727
-0.00023285819790951464
-0.0002218353246356915
-0.00022734676127260308
-0.0002108124513618684
-0.00019703385976958942
-0.0001997895780880452
-0.00023285819790951464
-0.00025765966277561676
-0.00023285819790951464
-0.0002190796063172357
-0.00019703385976958942
-0.00014191949340047367
-2.066788738841907e-05
0.00013640805676356078
0.0002852168459601733
0.0004670942549782553
0.0006544831006332488
0.0008501391012436096
0.0008611619745174325
0.0003982012970168605
-0.0004946514381628143
-0.0017209460898756396
-0.002487035782406348
-0.002470501472495613
-0.0022307539787899604
-0.0020213193865873205
-0.0017788161745632112
-0.0014949771877622651
-0.001147756679636836
-0.0007619561150530257
-0.0004918957198443586
-0.0003458426489662019
-0.0002631710994125282
-0.0002190796063172357
-0.00019427814145113364
-0.0001612095216296642
-0.00012538518348973897
-0.00010609515526054846
-7.57822537575348e-05
-5.3736507209888505e-05
-2.342360570687485e-05
-4.133577477684346e-06
4.133577477683014e-06
1.7912169069961946e-05
1.7912169069961946e-05
9.64501411459459e-06
2.8935042343785094e-05
6.200366216525454e-05
7.30265354390777e-05
7.30265354390777e-05
8.956084534981241e-05
9.507228198672396e-05
0.00013089662012664922
0.00013916377508201656
0.00011436231021591448
0.00013640805676356078
0.00018601098649576498
0.0001970338597695881
0.0002190796063172344
0.00025214822613870384
0.0002686825360494386
0.0002769496910048059
0.0002686825360494386
0.000315529747463187
0.0003485983672846564
0.0003844227054245816
0.00042851419851987416
0.0004422927901121532
0.0004505599450675205
0.000469849973296711
0.0004974071564812689
0.0005056743114366363
0.0005166971847104594
0.0005304757763027383
0.0005442543678950173
0.0005387429312581057
0.0005249643396658268
0.0005277200579842825
0.0005249643396658268
0.0005166971847104594
0.0004946514381628131
0.0004918957198443572
0.0004891400015259016
0.0004615828183413437
0.00042024704356450677
0.00035135408560311223
0.0002769496910048059
0.000210812451361867
0.00014191949340047234
8.956084534981241e-05
3.444647898069667e-05
-2.8935042343786426e-05
-7.57822537575348e-05
-0.00012538518348973897
-0.00016947667658503157
-0.00019427814145113364
-0.00021356816968032413
-0.00023010247959105888
-0.00023285819790951464
-0.00022734676127260308
-0.00023285819790951464
-0.00024939250782024937
-0.0002466367895017936
-0.00026592681773098404
-0.00029348400091554195
-0.00029348400091554195
-0.0002686825360494398
-0.0002604153810940725
-0.0002549039444571609
-0.00024388107118333775
-0.0002466367895017936
-0.00027694969100480727
-0.0002824611276417188
-0.00025765966277561676
-0.0002521482261387052
-0.00025765966277561676
-0.00024112535286488197
-0.00022459104295414727
-0.0002218353246356915
-0.00022459104295414727
-0.00022734676127260308
-0.00023285819790951464
-0.00023836963454642628
-0.0002190796063172357
-0.00018876670481422206
-0.00016672095826657574
-0.00017223239490348733
-0.0001777438315403989
-0.00014743093003738526
-0.0001364080567635621
-0.00011160659189746003
-9.507228198672531e-05
-5.3736507209888505e-05
-3.169076066224221e-05
-2.342360570687485e-05
-3.995791561760957e-05
-5.6492225528344285e-05
-4.8225070572976926e-05
-5.6492225528344285e-05
-0.00010058371862363688
-0.00012538518348973897
-0.00010885087357900426
-0.00011160659189746003
-0.00012538518348973897
-0.0001364080567635621
-0.00019152242313267784
-0.0002218353246356915
-0.00020530101472495681
-0.0002080567330434125
-0.0002190796063172357
-0.00023010247959105888
-0.0002466367895017936
-0.00023836963454642628
-0.0002108124513618684
-0.00021356816968032413
-0.00021632388799877996
-0.00021632388799877996
-0.00024939250782024937
-0.00023010247959105888
-0.00015569808499275262
-2.342360570687485e-05
0.00015294236667429551
0.0003127740291447311
0.0004615828183413437
0.0006186587624933234
0.000767467551689936
0.0007151089036392759
0.0002135681696803228
-0.0006655059739070732
-0.0018284191042954152
-0.0025256158388647287
-0.0024925472190432604
-0.0022417768520637833
-0.0019827393301289392
-0.0017099232166018165
-0.001409549919890136
-0.0010347722285801487
-0.0006765288471808962
-0.00045331566338597764
-0.0003100183108262768
-0.00025765966277561676
-0.00023561391622797047
-0.00020254529640650095
-0.0001612095216296642
-0.0001226294651712832
-8.129369039444639e-05
-5.9247943846800084e-05
-3.995791561760957e-05
-3.4446478980697995e-05
-2.342360570687485e-05
-1.7912169069963278e-05
-6.889295796140132e-06
1.7912169069961946e-05
1.2400732433050376e-05
6.8892957961388014e-06
3.169076066224089e-05
5.098078889143139e-05
9.23165636682682e-05
9.782800030517979e-05
0.00010885087357900291
0.0001253851834897376
0.00014743093003738393
0.00015845380331120705
0.00017498811322194178
0.0001970338597695881
0.0002190796063172344
0.0002218353246356902
0.00022734676127260172
0.0002741939726863501
0.0002989954375524522
0.0002852168459601733
0.00029623971923399637
0.000340331212329289
0.00037615555046921414
0.00042575848020141833
0.0004478042267490647
0.000456071381704432
0.0004781171282520784
0.0005001628747997245
0.0005166971847104594
0.0005277200579842825
0.0005332314946211942
0.0005359872129396498
0.000547010086213473
0.000560788677805752
0.0005552772411688404
0.0005525215228503846
0.0005497658045319286
0.0005332314946211942
0.0005194529030289152
0.0004974071564812689
0.0004670942549782553
0.0004064684519722279
0.00034584264896620056
0.00029072828259708476
0.00023561391622796914
0.00015294236667429551
7.578225375753347e-05
2.066788738841773e-05
-1.5156450751507488e-05
-4.5469352254521147e-05
-9.507228198672531e-05
-0.00013089662012665053
-0.00015294236667429682
-0.0001612095216296642
-0.00016396523994811996
-0.00019152242313267784
-0.0002080567330434125
-0.0002108124513618684
-0.0002190796063172357
-0.00021632388799877996
-0.00021632388799877996
-0.00023010247959105888
-0.00024112535286488197
-0.00024939250782024937
-0.0002521482261387052
-0.00023561391622797047
-0.00022734676127260308
-0.00022734676127260308
-0.0002218353246356915
-0.00023561391622797047
-0.00023836963454642628
-0.0002466367895017936
-0.0002549039444571609
-0.00023010247959105888
-0.00019152242313267784
-0.00019703385976958942
-0.0001997895780880452
-0.0002080567330434125
-0.00020530101472495681
-0.00018601098649576628
-0.00018325526817731047
-0.00017223239490348733
-0.00014743093003738526
-0.00013089662012665053
-0.00012538518348973897
-0.0001226294651712832
-0.00013089662012665053
-0.00010885087357900426
-7.57822537575348e-05
-3.4446478980697995e-05
-6.889295796140132e-06
-2.6179324025330647e-05
-4.8225070572976926e-05
-5.3736507209888505e-05
-6.200366216525588e-05
-5.9247943846800084e-05
-6.751509880216745e-05
-9.507228198672531e-05
-0.0001198737468528274
-0.00010333943694209268
-9.78280003051811e-05
-0.0001198737468528274
-0.00016672095826657574
-0.00018325526817731047
-0.0001777438315403989
-0.00016396523994811996
-0.00017498811322194308
-0.00017498811322194308
-0.00018601098649576628
-0.00019152242313267784
-0.00018876670481422206
-0.00019427814145113364
-0.0002080567330434125
-0.0002108124513618684
-0.00020530101472495681
-0.00019703385976958942
-0.00016396523994811996
-6.751509880216745e-05
8.68051270313566e-05
0.00024663678950179223
0.0004064684519722279
0.0005690558327611192
0.0007592003967345686
0.0008859634393835348
0.0006407045090409697
-8.956084534981374e-05
-0.001222161074235142
-0.0022114639505607697
-0.0024181428244449544
-0.0022004410772869464
-0.0019331364003967355
-0.00168787747005417
-0.001431595666437782
-0.0011119323414969108
-0.0007399103685053794
-0.00048087284657053543
-0.0003100183108262768
-0.00021356816968032413
-0.0001997895780880452
-0.00018601098649576628
-0.00015294236667429682
-0.00011436231021591582
-5.3736507209888505e-05
-3.4446478980697995e-05
-1.240073243305171e-05
1.2400732433050376e-05
2.066788738841773e-05
2.066788738841773e-05
3.444647898069667e-05
5.098078889143139e-05
5.373650720988717e-05
7.02708171206219e-05
9.507228198672396e-05
0.00010333943694209132
9.782800030517979e-05
9.507228198672396e-05
0.00011987374685282605
0.00013640805676356078
0.00015845380331120705
0.00018049954985885336
0.00020254529640649968
0.0002190796063172344
0.00023010247959105753
0.00024112535286488067
0.0002576596627756154
0.00027143825436789435
0.0003182854657816428
0.0003348197756923775
0.0003485983672846564
0.0003733998321507585
0.0004092241702906837
0.00042851419851987416
0.0004422927901121532
0.0004533156633859763
0.0004670942549782553
0.0004863842832074457
0.0004974071564812689
0.0005166971847104594
0.0005194529030289152
0.0005194529030289152
0.0005497658045319286
0.0005800787060349425
0.0005966130159456772
0.0005773229877164866
0.0005442543678950173
0.0005497658045319286
0.0005525215228503846
0.0005359872129396498
0.0005029185931181804
0.0004670942549782553
0.00042300276188296266
0.0003623769588769353
0.0002879725642786291
0.00020254529640649968
0.00013365233844510492
8.68051270313566e-05
3.169076066224089e-05
-2.6179324025330647e-05
-6.751509880216745e-05
-0.00010058371862363688
-0.00011436231021591582
-0.0001391637750820179
-0.00016396523994811996
-0.00017498811322194308
-0.0001777438315403989
-0.00018049954985885472
-0.00019427814145113364
-0.0001997895780880452
-0.0002080567330434125
-0.00021356816968032413
-0.0002549039444571609
-0.00023285819790951464
-0.00021632388799877996
-0.00022459104295414727
-0.00023010247959105888
-0.00022734676127260308
-0.00022734676127260308
-0.00021356816968032413
-0.00019427814145113364
-0.00019703385976958942
-0.00019427814145113364
-0.00018325526817731047
-0.00019427814145113364
-0.00021632388799877996
-0.00020530101472495681
-0.00017223239490348733
-0.00017223239490348733
-0.00018325526817731047
-0.0001777438315403989
-0.00015294236667429682
-0.00014191949340047367
-0.00013089662012665053
-0.00011436231021591582
-0.00010885087357900426
-0.00011160659189746003
-0.00010333943694209268
-5.3736507209888505e-05
-4.133577477684346e-06
9.64501411459459e-06
9.64501411459459e-06
-4.133577477684346e-06
-3.995791561760957e-05
-4.5469352254521147e-05
-3.720219729915378e-05
-6.475938048371164e-05
-8.680512703135793e-05
-8.956084534981374e-05
-0.00010058371862363688
-0.0001198737468528274
-0.0001364080567635621
-0.00014743093003738526
-0.00014743093003738526
-0.0001584538033112084
-0.00016947667658503157
-0.00016672095826657574
-0.00016947667658503157
-0.0001777438315403989
-0.0001777438315403989
-0.00016947667658503157
-0.00017223239490348733
-0.00018876670481422206
-0.00020530101472495681
-0.00021356816968032413
-0.00018876670481422206
-8.956084534981374e-05
5.098078889143139e-05
0.00019427814145113231
0.00033206405737392166
0.000469849973296711
0.0006627502555886161
0.0008694291294728002
0.000908009185931181
0.0004670942549782553
-0.0005166971847104609
-0.001789839047837034
-0.0024043642328526746
-0.0022941355001144434
-0.0020295865415426878
-0.0015941830472266732
-0.001310344060425727
-0.0009438335240711076
-0.0006103916075379574
-0.0003982012970168618
-0.00026592681773098404
-0.00021632388799877996
-0.00020530101472495681
-0.00016396523994811996
-0.0001336523384451063
-0.00010058371862363688
-6.200366216525588e-05
-1.240073243305171e-05
-1.240073243305171e-05
-2.8935042343786426e-05
-1.7912169069963278e-05
2.3423605706873515e-05
3.720219729915245e-05
5.373650720988717e-05
5.649222552834297e-05
6.475938048371032e-05
8.404940871290084e-05
9.23165636682682e-05
9.507228198672396e-05
7.853797207598924e-05
0.00010058371862363556
0.00013365233844510492
0.00016120952162966288
0.00017774383154039756
0.0001970338597695881
0.00020254529640649968
0.00018049954985885336
0.00019152242313267648
0.00024388107118333642
0.0002769496910048059
0.0002989954375524522
0.00033206405737392166
0.0003485983672846564
0.00037615555046921414
0.0003844227054245816
0.00041473560692759526
0.0004395370717936973
0.0004505599450675205
0.0004670942549782553
0.0004863842832074457
0.0005001628747997245
0.0005111857480735478
0.0005249643396658268
0.0005387429312581057
0.0005635443961242077
0.0005800787060349425
0.000585590142671854
0.0005800787060349425
0.000585590142671854
0.0005690558327611192
0.0005359872129396498
0.0005304757763027383
0.0005277200579842825
0.0004946514381628131
0.0004505599450675205
0.0003954455786984048
0.0003127740291447311
0.0002493925078202481
0.00018601098649576498
0.00011711802853437029
5.9247943846798756e-05
-1.377859159228559e-06
-5.9247943846800084e-05
-0.00010058371862363688
-0.0001364080567635621
-0.00017498811322194308
-0.00019427814145113364
-0.0001997895780880452
-0.00021632388799877996
-0.0002108124513618684
-0.00021356816968032413
-0.0002466367895017936
-0.00026592681773098404
-0.00024388107118333775
-0.00023285819790951464
-0.00023836963454642628
-0.00023836963454642628
-0.00023561391622797047
-0.00023285819790951464
-0.00023285819790951464
-0.00024388107118333775
-0.0002549039444571609
-0.00023561391622797047
-0.0002190796063172357
-0.00020254529640650095
-0.0002190796063172357
-0.00023285819790951464
-0.00022734676127260308
-0.0001997895780880452
-0.00019152242313267784
-0.00020530101472495681
-0.00021356816968032413
-0.00023010247959105888
-0.0001997895780880452
-0.0001612095216296642
-0.00015294236667429682
-0.00015569808499275262
-0.00016947667658503157
-0.00015294236667429682
-0.00014191949340047367
-0.00014467521171892948
-0.00010609515526054846
-7.027081712062322e-05
-3.995791561760957e-05
-2.6179324025330647e-05
-3.4446478980697995e-05
-7.302653543907902e-05
-9.78280003051811e-05
-0.00010609515526054846
-0.00010333943694209268
-0.00010885087357900426
-0.0001171180285343716
-0.0001226294651712832
-0.00014191949340047367
-0.000150186648355841
-0.00018049954985885472
-0.00023561391622797047
-0.00025765966277561676
-0.00023285819790951464
-0.0002080567330434125
-0.00019703385976958942
-0.00019703385976958942
-0.00021632388799877996
-0.00021356816968032413
-0.00022459104295414727
-0.00023285819790951464
-0.00023010247959105888
-0.00024388107118333775
-0.00022734676127260308
-0.00020530101472495681
-0.0001226294651712832
2.066788738841773e-05
0.0003430869306477448
0.0005029185931181804
0.0007123531853208202
0.0009410778057526506
0.000908009185931181
0.0003375754940108332
-0.000745421805142291
-0.0019717164568551163
-0.002445700007629512
-0.0023299598382543686
-0.0021122580910963615
-0.001883533470664531
-0.0016300073853665984
-0.0013296340886549175
-0.0009493449607080192
-0.0006434602273594267
-0.0004615828183413449
-0.0003127740291447324
-0.0002549039444571609
-0.00023010247959105888
-0.00017498811322194308
-0.00014191949340047367
-0.0001198737468528274
-8.956084534981374e-05
-7.57822537575348e-05
-7.027081712062322e-05
-7.027081712062322e-05
-6.200366216525588e-05
-3.995791561760957e-05
-2.066788738841907e-05
-1.377859159228559e-06
1.2400732433050376e-05
2.6179324025329308e-05
4.271363393606403e-05
5.373650720988717e-05
6.200366216525454e-05
6.751509880216611e-05
8.68051270313566e-05
0.00011160659189745871
0.00013089662012664922
0.00012262946517128183
0.00013365233844510492
0.00015018664835583973
0.00015845380331120705
0.00017774383154039756
0.000210812451361867
0.00024112535286488067
0.0002576596627756154
0.00026592681773098274
0.0002576596627756154
0.00027970540932326175
0.0003182854657816428
0.000365132677195391
0.0004064684519722279
0.00041473560692759526
0.00042575848020141833
0.0004340256351567857
0.0004643385366597993
0.0004891400015259016
0.00048362856488898997
0.00047536140993362247
0.0004863842832074457
0.0005056743114366363
0.0005194529030289152
0.0005332314946211942
0.0005111857480735478
0.0005056743114366363
0.0005001628747997245
0.000469849973296711
0.00042575848020141833
0.0003430869306477448
0.0002934840009155406
0.0002769496910048059
0.0002135681696803228
0.00013089662012664922
4.546935225451981e-05
-6.889295796140132e-06
-3.169076066224221e-05
-7.302653543907902e-05
-0.00011160659189746003
-0.00016396523994811996
-0.00021632388799877996
-0.00021356816968032413
-0.0002080567330434125
-0.0002080567330434125
-0.00023010247959105888
-0.00025765966277561676
-0.00027970540932326305
-0.00027694969100480727
-0.00027694969100480727
-0.00028797256427863044
-0.00030175115587090934
-0.0002852168459601746
-0.0002631710994125282
-0.0002631710994125282
-0.00027970540932326305
-0.0002824611276417188
-0.00027970540932326305
-0.00025765966277561676
-0.00023836963454642628
-0.0002521482261387052
-0.0002549039444571609
-0.00026592681773098404
-0.00027419397268635144
-0.0002466367895017936
-0.00023285819790951464
-0.0002108124513618684
-0.00020254529640650095
-0.00023561391622797047
-0.00024939250782024937
-0.00024112535286488197
-0.00024388107118333775
-0.00022459104295414727
-0.0002218353246356915
-0.00018325526817731047
-0.00015294236667429682
-0.00015294236667429682
-0.000150186648355841
-0.00016672095826657574
-0.00016396523994811996
-0.00011436231021591582
-7.302653543907902e-05
-5.6492225528344285e-05
-5.6492225528344285e-05
-8.404940871290214e-05
-8.680512703135793e-05
-0.00010609515526054846
-0.0001198737468528274
-0.0001171180285343716
-0.00011436231021591582
-0.00014743093003738526
-0.00016672095826657574
-0.00017498811322194308
-0.00018876670481422206
-0.0002108124513618684
-0.00024388107118333775
-0.00027419397268635144
-0.00024939250782024937
-0.00023010247959105888
-0.0002108124513618684
-0.0002218353246356915
-0.0002466367895017936
-0.00027143825436789566
-0.00024939250782024937
-0.0002190796063172357
-0.00022459104295414727
-0.00022734676127260308
-0.00016396523994811996
-1.7912169069963278e-05
0.00015018664835583973
0.00032379690241855427
0.0004808728465705341
0.0006655059739070718
0.0008694291294728002
0.0008776962844281674
0.00037891126878767
-0.0006186587624933248
-0.0018945563439383547
-0.002547661585412376
-0.002448455725947967
-0.0021976853589684904
-0.001977227893492027
-0.00174023611810483
-0.0014591528496223395
-0.0011009094682230872
-0.0007509332417792025
-0.0005111857480735491
-0.0003293083390554673
-0.0002466367895017936
-0.00022734676127260308
-0.00018876670481422206
-0.0001612095216296642
-0.00014191949340047367
-0.00010885087357900426
-0.00010058371862363688
-8.680512703135793e-05
-6.751509880216745e-05
-6.751509880216745e-05
-6.200366216525588e-05
-3.169076066224221e-05
4.133577477683014e-06
2.066788738841773e-05
3.169076066224089e-05
5.373650720988717e-05
6.475938048371032e-05
7.02708171206219e-05
8.404940871290084e-05
9.23165636682682e-05
9.23165636682682e-05
0.00012262946517128183
0.00015294236667429551
0.00015845380331120705
0.00016396523994811866
0.00018049954985885336
0.00020530101472495543
0.00023285819790951333
0.00026041538109407124
0.00026592681773098274
0.0002769496910048059
0.00029623971923399637
0.00031001831082627527
0.0003596212405584795
0.0003844227054245816
0.0004064684519722279
0.0004450485084306089
0.0004643385366597993
0.000469849973296711
0.0004808728465705341
0.0004918957198443572
0.00048362856488898997
0.0005111857480735478
0.0005249643396658268
0.0005387429312581057
0.0005497658045319286
0.0005387429312581057
0.0005387429312581057
0.0005304757763027383
0.000508430029755092
0.00047536140993362247
0.0004533156633859763
0.00038993414206149314
0.000315529747463187
0.00024663678950179223
0.0001832552681773092
0.00012262946517128183
7.578225375753347e-05
4.546935225451981e-05
1.3778591592272275e-06
-6.475938048371164e-05
-0.0001171180285343716
-0.00013089662012665053
-0.00014191949340047367
-0.00015569808499275262
-0.00018601098649576628
-0.0002080567330434125
-0.0002080567330434125
-0.00024388107118333775
-0.00024388107118333775
-0.00023285819790951464
-0.00023836963454642628
-0.00024939250782024937
-0.00024388107118333775
-0.00025765966277561676
-0.00027694969100480727
-0.00027970540932326305
-0.00027419397268635144
-0.00024112535286488197
-0.00022459104295414727
-0.00024388107118333775
-0.0002466367895017936
-0.00023836963454642628
-0.00023285819790951464
-0.00023836963454642628
-0.00023285819790951464
-0.00021632388799877996
-0.0002080567330434125
-0.0002080567330434125
-0.00019427814145113364
-0.00018325526817731047
-0.00018049954985885472
-0.00018325526817731047
-0.00018876670481422206
-0.00016947667658503157
-0.00016396523994811996
-0.00015294236667429682
-0.00012814090180819475
-0.0001336523384451063
-0.00011160659189746003
-9.231656366826955e-05
-7.027081712062322e-05
-3.4446478980697995e-05
-2.342360570687485e-05
-3.720219729915378e-05
-5.9247943846800084e-05
-8.129369039444639e-05
-9.231656366826955e-05
-9.78280003051811e-05
-9.507228198672531e-05
-8.956084534981374e-05
-0.0001198737468528274
-0.0001364080567635621
-0.00014467521171892948
-0.0001584538033112084
-0.00019152242313267784
-0.0002080567330434125
-0.00019427814145113364
-0.0002080567330434125
-0.00023010247959105888
-0.00023836963454642628
-0.00023285819790951464
-0.00022734676127260308
-0.00023561391622797047
-0.00022734676127260308
-0.0002080567330434125
-0.00022459104295414727
-0.0002521482261387052
-0.00020530101472495681
-8.129369039444639e-05
0.00010885087357900291
0.0002879725642786291
0.0004533156633859763
0.0005966130159456772
0.0007647118333714802
0.0008280933546959632
0.0004946514381628131
-0.00032379690241855563
-0.001511511497673
-0.002473257190814069
-0.002605531670099947
-0.002382318486305028
-0.0021425709925993745
-0.001875266315709164
-0.0015941830472266732
-0.0012607411306935232
-0.0008473833829251552
-0.0005525215228503861
-0.0003651326771953924
-0.00025765966277561676
-0.00022459104295414727
-0.00019703385976958942
-0.00016672095826657574
-0.00016672095826657574
-0.00014191949340047367
-8.680512703135793e-05
-7.302653543907902e-05
-4.8225070572976926e-05
-1.5156450751507488e-05
4.133577477683014e-06
1.3778591592272275e-06
1.7912169069961946e-05
1.7912169069961946e-05
2.066788738841773e-05
4.271363393606403e-05
6.475938048371032e-05
8.68051270313566e-05
0.00010333943694209132
9.782800030517979e-05
0.00010058371862363556
0.00012262946517128183
0.00015294236667429551
0.0001694766765850302
0.000210812451361867
0.00022459104295414594
0.00023561391622796914
0.00025214822613870384
0.0002686825360494386
0.0002769496910048059
0.00030450687418936376
0.00033206405737392166
0.0003568655222400236
0.00038993414206149314
0.00038993414206149314
0.0004064684519722279
0.0004395370717936973
0.00047536140993362247
0.0005056743114366363
0.0005139414663920035
0.0005387429312581057
0.000560788677805752
0.0005497658045319286
0.0005552772411688404
0.0005497658045319286
0.0005497658045319286
0.0005663001144426635
0.0005800787060349425
0.0005497658045319286
0.0005222086213473709
0.0004974071564812689
0.0004588271000228878
0.0004009570153353164
0.0003430869306477448
0.0002852168459601733
0.00019978957808804387
0.00013365233844510492
9.782800030517979e-05
6.200366216525454e-05
1.5156450751506162e-05
-4.5469352254521147e-05
-0.00010885087357900426
-0.00014467521171892948
-0.00016672095826657574
-0.00018325526817731047
-0.00018325526817731047
-0.00020254529640650095
-0.00021356816968032413
-0.00021632388799877996
-0.0002218353246356915
-0.00023010247959105888
-0.00024388107118333775
-0.00023836963454642628
-0.00026592681773098404
-0.00027419397268635144
-0.0002549039444571609
-0.0002604153810940725
-0.00026592681773098404
-0.0002466367895017936
-0.00023285819790951464
-0.00023010247959105888
-0.00023836963454642628
-0.00024388107118333775
-0.00022734676127260308
-0.0002108124513618684
-0.00019703385976958942
-0.0001997895780880452
-0.0001997895780880452
-0.00020530101472495681
-0.00019427814145113364
-0.00019152242313267784
-0.00016672095826657574
-0.00016947667658503157
-0.0001612095216296642
-0.0001336523384451063
-0.0001198737468528274
-0.0001171180285343716
-9.507228198672531e-05
-8.404940871290214e-05
-8.129369039444639e-05
-8.404940871290214e-05
-6.475938048371164e-05
-3.169076066224221e-05
6.8892957961388014e-06
1.5156450751506162e-05
6.8892957961388014e-06
-1.5156450751507488e-05
-5.3736507209888505e-05
-5.6492225528344285e-05
-4.8225070572976926e-05
-3.995791561760957e-05
-6.751509880216745e-05
-9.231656366826955e-05
-8.680512703135793e-05
-7.85379720759906e-05
-0.00010333943694209268
-0.00014467521171892948
-0.0001584538033112084
-0.00015294236667429682
-0.00014467521171892948
-0.00015569808499275262
-0.00017223239490348733
-0.00018325526817731047
-0.00018325526817731047
-0.00018876670481422206
-0.00017223239490348733
-0.00017223239490348733
-0.00018876670481422206
-0.00018876670481422206
-0.00013089662012665053
-1.5156450751507488e-05
0.00013916377508201656
0.0003348197756923775
0.0005001628747997245
0.0006599945372701603
0.0008308490730144192
0.0009052534676127252
0.0005828344243533982
-0.00022459104295414727
-0.001442618539711605
-0.002368539894712749
-0.0024760129091325246
-0.002244532570382239
-0.00196896073853666
-0.001690633188372626
-0.0013875041733424894
-0.001026505073624781
-0.0006820402838178078
-0.00043402563515678713
-0.00029072828259708617
-0.0002218353246356915
-0.00016672095826657574
-0.0001198737468528274
-9.507228198672531e-05
-7.85379720759906e-05
-5.098078889143272e-05
-1.5156450751507488e-05
4.133577477683014e-06
9.64501411459459e-06
2.3423605706873515e-05
4.271363393606403e-05
5.098078889143139e-05
5.649222552834297e-05
6.200366216525454e-05
8.404940871290084e-05
0.00011160659189745871
0.0001253851834897376
0.00011987374685282605
0.00013365233844510492
0.000172232394903486
0.00019978957808804387
0.00019427814145113231
0.0001832552681773092
0.00020530101472495543
0.0002383696345464249
0.0002549039444571596
0.0002769496910048059
0.000301751155870908
0.00030450687418936376
0.00032379690241855427
0.00036788839551384685
0.00038993414206149314
0.00037615555046921414
0.00037891126878767
0.00042575848020141833
0.000456071381704432
0.0004670942549782553
0.000469849973296711
0.00048362856488898997
0.0005414986495765614
0.0005690558327611192
0.0005800787060349425
0.0005745672693980309
0.000560788677805752
0.000560788677805752
0.0005635443961242077
0.000585590142671854
0.0005883458609903097
0.0005718115510795751
0.0005525215228503846
0.0005332314946211942
0.0004918957198443572
0.0004505599450675205
0.0003982012970168605
0.0003375754940108332
0.00027143825436789435
0.0001970338597695881
0.0001253851834897376
6.475938048371032e-05
4.271363393606403e-05
6.8892957961388014e-06
-3.720219729915378e-05
-6.200366216525588e-05
-7.85379720759906e-05
-0.00011436231021591582
-0.00014467521171892948
-0.00017223239490348733
-0.00018049954985885472
-0.000150186648355841
-0.00014743093003738526
-0.0001777438315403989
-0.00019152242313267784
-0.00017223239490348733
-0.00017498811322194308
-0.00016947667658503157
-0.00018601098649576628
-0.00018601098649576628
-0.00018601098649576628
-0.00018601098649576628
-0.00018325526817731047
-0.00017498811322194308
-0.00017223239490348733
-0.0001584538033112084
-0.00014743093003738526
-0.00015569808499275262
-0.00015569808499275262
-0.00015294236667429682
-0.00014467521171892948
-0.00016672095826657574
-0.00016396523994811996
-0.00015294236667429682
-0.00014191949340047367
-0.00013089662012665053
-0.00013089662012665053
-0.0001198737468528274
-8.680512703135793e-05
-7.027081712062322e-05
-7.85379720759906e-05
-6.475938048371164e-05
-4.5469352254521147e-05
-2.8935042343786426e-05
-2.066788738841907e-05
6.8892957961388014e-06
4.546935225451981e-05
5.098078889143139e-05
2.6179324025329308e-05
-9.64501411459592e-06
-1.7912169069963278e-05
-9.64501411459592e-06
-1.240073243305171e-05
-2.342360570687485e-05
-3.4446478980697995e-05
-4.5469352254521147e-05
-4.5469352254521147e-05
-5.3736507209888505e-05
-9.78280003051811e-05
-0.00014191949340047367
-0.000150186648355841
-0.00014467521171892948
-0.00014467521171892948
-0.00014467521171892948
-0.00015569808499275262
-0.000150186648355841
-0.00013089662012665053
-0.0001198737468528274
-0.00012538518348973897
-0.00014467521171892948
-0.00015294236667429682
-0.0001364080567635621
-8.404940871290214e-05
1.2400732433050376e-05
0.0001556980849927513
0.0003293083390554659
0.0004918957198443572
0.0006544831006332488
0.0008473833829251538
0.0009934364538033101
0.0008005361715114055
8.129369039444505e-05
-0.0011009094682230872
-0.0021618610208285647
-0.002385074204623484
-0.0021728838941023885
-0.0019028234988937211
-0.0016575645685511565
-0.0013985270466163123
-0.00109264231326772
-0.0004560713817044334
-0.00026592681773098404
-0.00016396523994811996
-0.000150186648355841
-0.0001171180285343716
-7.302653543907902e-05
-5.6492225528344285e-05
-3.4446478980697995e-05
-1.240073243305171e-05
1.3778591592272275e-06
2.066788738841773e-05
3.169076066224089e-05
4.271363393606403e-05
7.30265354390777e-05
8.404940871290084e-05
9.782800030517979e-05
0.00010885087357900291
0.00011711802853437029
0.00011160659189745871
0.00011160659189745871
0.00013365233844510492
0.00015845380331120705
0.00017498811322194178
0.00018876670481422076
0.0001970338597695881
0.000210812451361867
0.0002218353246356902
0.00023010247959105753
0.0002383696345464249
0.0002549039444571596
0.0002934840009155406
0.00032655262073701005
0.0003430869306477448
0.0003568655222400236
0.00036788839551384685
0.000392689860379949
0.00041473560692759526
0.0004478042267490647
0.0004670942549782553
0.0004726056916151668
0.0004918957198443572
0.0005111857480735478
0.0005194529030289152
0.0005359872129396498
0.0005552772411688404
0.0005690558327611192
0.0005580329594872961
0.0005690558327611192
0.0005883458609903097
0.0005800787060349425
0.0005800787060349425
0.0005745672693980309
0.000560788677805752
0.0005359872129396498
0.000508430029755092
0.0004588271000228878
0.00038717842374303736
0.00035410980392156795
0.0003182854657816428
0.000263171099412527
0.00017498811322194178
0.00010333943694209132
5.649222552834297e-05
2.6179324025329308e-05
-1.377859159228559e-06
-6.751509880216745e-05
-0.0001198737468528274
-0.0001226294651712832
-0.00013089662012665053
-0.00014191949340047367
-0.00018325526817731047
-0.00019427814145113364
-0.00018325526817731047
-0.00018601098649576628
-0.00019152242313267784
-0.00018601098649576628
-0.00018601098649576628
-0.00018876670481422206
-0.00020254529640650095
-0.0002108124513618684
-0.00021632388799877996
-0.00021632388799877996
-0.00019427814145113364
-0.00018049954985885472
-0.00015294236667429682
-0.0001336523384451063
-0.00012538518348973897
-0.0001364080567635621
-0.00015569808499275262
-0.0001391637750820179
-0.00012538518348973897
-0.0001198737468528274
-0.0001171180285343716
-0.0001198737468528274
-0.00014191949340047367
-0.000150186648355841
-0.0001364080567635621
-0.0001391637750820179
-0.00012538518348973897
-9.507228198672531e-05
-9.231656366826955e-05
-8.129369039444639e-05
-7.302653543907902e-05
-6.475938048371164e-05
-4.8225070572976926e-05
-2.342360570687485e-05
-1.240073243305171e-05
1.3778591592272275e-06
2.066788738841773e-05
9.64501411459459e-06
-2.066788738841907e-05
-1.7912169069963278e-05
-4.133577477684346e-06
-1.7912169069963278e-05
-2.066788738841907e-05
-3.4446478980697995e-05
-5.9247943846800084e-05
-7.027081712062322e-05
-7.57822537575348e-05
-8.404940871290214e-05
-0.00010609515526054846
-0.0001198737468528274
-0.00012538518348973897
-0.0001391637750820179
-0.00014467521171892948
-0.00012814090180819475
-0.0001364080567635621
-0.0001364080567635621
-0.00015294236667429682
-0.00014191949340047367
-0.0001391637750820179
-0.00015294236667429682
-0.00015569808499275262
-0.00012814090180819475
-3.720219729915378e-05
8.404940871290084e-05
0.0003844227054245816
0.0005525215228503846
0.0007702232700083917
0.0009934364538033101
0.0009879250171663987
0.0004808728465705341
-0.0005580329594872974
-0.0018008619211108575
-0.0023299598382543686
-0.0022169753871976814
-0.001991006485084307
-0.0017622818646524767
-0.0015308015259021903
-0.0012607411306935232
-0.0009024977492942707
-0.000577322987716488
-0.00037891126878767127
-0.00023561391622797047
-0.00018876670481422206
-0.00014191949340047367
-0.00010609515526054846
-0.00010058371862363688
-6.751509880216745e-05
-3.169076066224221e-05
-3.169076066224221e-05
-2.6179324025330647e-05
2.066788738841773e-05
5.373650720988717e-05
7.30265354390777e-05
6.751509880216611e-05
6.200366216525454e-05
7.853797207598924e-05
0.00010333943694209132
0.00011711802853437029
0.00013089662012664922
0.00013640805676356078
0.00015018664835583973
0.0001556980849927513
0.00017498811322194178
0.00019152242313267648
0.00018876670481422076
0.00019978957808804387
0.00023010247959105753
0.0002549039444571596
0.0002686825360494386
0.0002824611276417174
0.0002989954375524522
0.0003072625925078196
0.000301751155870908
0.00035410980392156795
0.0003733998321507585
0.0003844227054245816
0.0003982012970168605
0.00042575848020141833
0.0004670942549782553
0.0004891400015259016
0.0005111857480735478
0.0005249643396658268
0.0005304757763027383
0.0005277200579842825
0.0005387429312581057
0.0005663001144426635
0.0005690558327611192
0.000560788677805752
0.0005414986495765614
0.000560788677805752
0.0005525215228503846
0.0005359872129396498
0.0005001628747997245
0.0004643385366597993
0.0004450485084306089
0.0003982012970168605
0.0003348197756923775
0.0002576596627756154
0.000172232394903486
0.00011987374685282605
6.751509880216611e-05
2.066788738841773e-05
-1.7912169069963278e-05
-5.098078889143272e-05
-6.475938048371164e-05
-8.404940871290214e-05
-9.78280003051811e-05
-0.00013089662012665053
-0.00017223239490348733
-0.00018876670481422206
-0.00019703385976958942
-0.0002080567330434125
-0.00021356816968032413
-0.0001997895780880452
-0.00020254529640650095
-0.0002080567330434125
-0.0002190796063172357
-0.00021632388799877996
-0.00021356816968032413
-0.0002080567330434125
-0.0001997895780880452
-0.00019427814145113364
-0.00019152242313267784
-0.00018876670481422206
-0.00019152242313267784
-0.0002108124513618684
-0.0002080567330434125
-0.00018325526817731047
-0.0001777438315403989
-0.00015569808499275262
-0.00014743093003738526
-0.00015294236667429682
-0.00016396523994811996
-0.00016396523994811996
-0.00016947667658503157
-0.00016396523994811996
-0.00014191949340047367
-0.00012814090180819475
-0.00010058371862363688
-8.404940871290214e-05
-7.85379720759906e-05
-8.404940871290214e-05
-8.680512703135793e-05
-0.00010333943694209268
-0.00010609515526054846
-3.995791561760957e-05
1.2400732433050376e-05
1.7912169069961946e-05
4.133577477683014e-06
-1.240073243305171e-05
-1.7912169069963278e-05
-3.720219729915378e-05
-5.098078889143272e-05
-6.200366216525588e-05
-6.751509880216745e-05
-5.6492225528344285e-05
-5.098078889143272e-05
-7.57822537575348e-05
-0.00010609515526054846
-0.00012814090180819475
-0.00016396523994811996
-0.00016947667658503157
-0.00016672095826657574
-0.00015294236667429682
-0.0001364080567635621
-0.00014467521171892948
-0.00016672095826657574
-0.00016396523994811996
-0.00017223239490348733
-0.0001777438315403989
-0.00017223239490348733
-0.0001612095216296642
-7.302653543907902e-05
5.649222552834297e-05
0.00022734676127260172
0.00040371273365377215
0.0005635443961242077
0.000753688960097657
0.0010099707637140451
0.001048550820172426
0.0005497658045319286
-0.0004974071564812702
-0.001787083329518578
-0.0023630284580758373
-0.0022693340352483407
-0.002032342259861144
-0.001820151949340048
-0.0015914273289082171
-0.0013268783703364617
-0.000963123552300298
-0.000629681635767148
-0.00043402563515678713
-0.00027970540932326305
-0.00020254529640650095
-0.0001612095216296642
-0.0001198737468528274
-8.404940871290214e-05
-7.027081712062322e-05
-5.098078889143272e-05
-2.8935042343786426e-05
1.5156450751506162e-05
1.7912169069961946e-05
-4.133577477684346e-06
1.2400732433050376e-05
4.271363393606403e-05
6.475938048371032e-05
7.30265354390777e-05
8.68051270313566e-05
0.00011711802853437029
0.00012262946517128183
0.0001253851834897376
0.00014743093003738393
0.0001556980849927513
0.00016672095826657444
0.0001694766765850302
0.00017498811322194178
0.00019427814145113231
0.00022459104295414594
0.0002549039444571596
0.0002741939726863501
0.0002879725642786291
0.0002769496910048059
0.0002824611276417174
0.00031001831082627527
0.00033206405737392166
0.0003623769588769353
0.0003844227054245816
0.000392689860379949
0.00042851419851987416
0.0004643385366597993
0.0004863842832074457
0.000508430029755092
0.0005332314946211942
0.0005525215228503846
0.0005414986495765614
0.0005359872129396498
0.0005580329594872961
0.0005690558327611192
0.0005525215228503846
0.0005277200579842825
0.0005304757763027383
0.0005332314946211942
0.0005111857480735478
0.00048362856488898997
0.0004615828183413437
0.00041749132524605104
0.00035135408560311223
0.0003072625925078196
0.00024388107118333642
0.00016120952162966288
0.00010058371862363556
7.02708171206219e-05
2.8935042343785094e-05
-1.5156450751507488e-05
-6.475938048371164e-05
-0.00011160659189746003
-0.0001226294651712832
-0.0001364080567635621
-0.00016947667658503157
-0.00019427814145113364
-0.0001997895780880452
-0.00019703385976958942
-0.00020254529640650095
-0.00022459104295414727
-0.00021632388799877996
-0.00021632388799877996
-0.00019703385976958942
-0.0002080567330434125
-0.00022459104295414727
-0.00023010247959105888
-0.00023561391622797047
-0.0002218353246356915
-0.00020530101472495681
-0.0002108124513618684
-0.0002218353246356915
-0.00024112535286488197
-0.0002218353246356915
-0.0001997895780880452
-0.00016672095826657574
-0.00016396523994811996
-0.00018325526817731047
-0.00016672095826657574
-0.00015569808499275262
-0.0001584538033112084
-0.00017498811322194308
-0.00017223239490348733
-0.00016947667658503157
-0.00014743093003738526
-0.0001198737468528274
-0.00010058371862363688
-8.956084534981374e-05
-7.85379720759906e-05
-7.57822537575348e-05
-6.475938048371164e-05
-4.2713633936065354e-05
-4.5469352254521147e-05
-3.4446478980697995e-05
-1.240073243305171e-05
-2.6179324025330647e-05
-3.169076066224221e-05
-5.6492225528344285e-05
-5.9247943846800084e-05
-3.995791561760957e-05
-4.5469352254521147e-05
-6.200366216525588e-05
-9.507228198672531e-05
-0.0001171180285343716
-0.00014191949340047367
-0.0001584538033112084
-0.0001391637750820179
-0.00014467521171892948
-0.00015569808499275262
-0.0001612095216296642
-0.00017498811322194308
-0.00018325526817731047
-0.0001777438315403989
-0.00018049954985885472
-0.0001777438315403989
-0.00017223239490348733
-0.00017223239490348733
-0.00017498811322194308
-0.00014191949340047367
-4.2713633936065354e-05
0.00011160659189745871
0.0002824611276417174
0.0004478042267490647
0.0005938572976272215
0.0007812461432822147
0.0009328106507972832
0.0007233760585946433
2.066788738841773e-05
-0.0010898865949492643
-0.0021756396124208446
-0.0024925472190432604
-0.0023189369649805444
-0.002092968062867171
-0.0018532205691615172
-0.001585915892271306
-0.001266252567330435
-0.0008969863126573594
-0.0005883458609903113
-0.00040646845197222917
-0.00027143825436789566
-0.00021356816968032413
-0.00018325526817731047
-0.0001364080567635621
-0.00010058371862363688
-8.956084534981374e-05
-8.129369039444639e-05
-3.720219729915378e-05
-1.5156450751507488e-05
4.133577477683014e-06
1.5156450751506162e-05
3.720219729915245e-05
5.9247943846798756e-05
7.30265354390777e-05
6.751509880216611e-05
6.751509880216611e-05
9.507228198672396e-05
0.00010885087357900291
0.00010609515526054714
0.00011160659189745871
0.00013916377508201656
0.0001556980849927513
0.0001694766765850302
0.00019427814145113231
0.000210812451361867
0.00023010247959105753
0.0002549039444571596
0.0002741939726863501
0.0002824611276417174
0.000315529747463187
0.000340331212329289
0.0003568655222400236
0.00037615555046921414
0.0003816669871061258
0.0003954455786984048
0.0004478042267490647
0.0004808728465705341
0.0005056743114366363
0.0005304757763027383
0.0005414986495765614
0.0005387429312581057
0.0005497658045319286
0.0005580329594872961
0.0005690558327611192
0.0005690558327611192
0.0005718115510795751
0.0005635443961242077
0.0005635443961242077
0.0005525215228503846
0.0005332314946211942
0.0004974071564812689
0.0004615828183413437
0.00043126991683832994
0.00037615555046921414
0.00032379690241855427
0.00027143825436789435
0.00018876670481422076
0.00010058371862363556
6.475938048371032e-05
3.444647898069667e-05
-2.066788738841907e-05
-6.751509880216745e-05
-0.00010058371862363688
-0.0001226294651712832
-0.00015569808499275262
-0.0001777438315403989
-0.00019152242313267784
-0.0002080567330434125
-0.00019703385976958942
-0.00019152242313267784
-0.00020530101472495681
-0.0002080567330434125
-0.00019703385976958942
-0.0002108124513618684
-0.00024388107118333775
-0.00023010247959105888
-0.00021356816968032413
-0.00021632388799877996
-0.00020530101472495681
-0.00020530101472495681
-0.00020530101472495681
-0.0002218353246356915
-0.0002190796063172357
-0.00021356816968032413
-0.00020530101472495681
-0.00019703385976958942
-0.00019703385976958942
-0.00016947667658503157
-0.00015294236667429682
-0.00015569808499275262
-0.00014467521171892948
-0.00016396523994811996
-0.0001364080567635621
-9.78280003051811e-05
-0.00010333943694209268
-0.00010058371862363688
-8.680512703135793e-05
-8.680512703135793e-05
-8.129369039444639e-05
-6.200366216525588e-05
-2.8935042343786426e-05
1.5156450751506162e-05
3.444647898069667e-05
4.271363393606403e-05
3.9957915617608246e-05
1.7912169069961946e-05
-9.64501411459592e-06
1.3778591592272275e-06
-1.240073243305171e-05
-4.8225070572976926e-05
-4.5469352254521147e-05
-3.720219729915378e-05
-5.9247943846800084e-05
-6.751509880216745e-05
-8.680512703135793e-05
-0.0001226294651712832
-0.00012538518348973897
-0.0001391637750820179
-0.00015294236667429682
-0.0001584538033112084
-0.00016396523994811996
-0.000150186648355841
-0.0001391637750820179
-0.0001391637750820179
-0.00014191949340047367
-0.00015294236667429682
-0.00015569808499275262
-0.0001364080567635621
-9.78280003051811e-05
2.3423605706873515e-05
0.00020530101472495543
0.0003816669871061258
0.0005194529030289152
0.0006710174105439835
0.0008225819180590517
0.0008363605096513305
0.0004422927901121532
-0.0003982012970168618
-0.0015638701457236597
-0.0024512114442664236
-0.0025256158388647287
-0.00228311262684062
-0.002024075104905776
-0.0017540147096971087
-0.0014563971313038841
-0.0010871308766308087
-0.0006875517204547195
-0.000423002761882964
-0.00027143825436789566
-0.00018601098649576628
-0.0001336523384451063
-0.00011160659189746003
-9.231656366826955e-05
-5.098078889143272e-05
-1.5156450751507488e-05
1.2400732433050376e-05
2.8935042343785094e-05
4.546935225451981e-05
6.751509880216611e-05
9.507228198672396e-05
7.853797207598924e-05
8.129369039444505e-05
0.00011436231021591448
0.00013089662012664922
0.00013916377508201656
0.00016120952162966288
0.0001694766765850302
0.000172232394903486
0.00017774383154039756
0.0002135681696803228
0.00024388107118333642
0.00026041538109407124
0.00026592681773098274
0.0002741939726863501
0.0003072625925078196
0.0003293083390554659
0.0003375754940108332
0.000365132677195391
0.00038717842374303736
0.000392689860379949
0.00041197988860913943
0.0004395370717936973
0.000469849973296711
0.00047536140993362247
0.0004918957198443572
0.0005332314946211942
0.0005525215228503846
0.000560788677805752
0.0005718115510795751
0.0005718115510795751
0.000599368734264133
0.0006131473258564118
0.0006131473258564118
0.0006269259174486908
0.0006186587624933234
0.000599368734264133
0.0006021244525825888
0.000599368734264133
0.0005745672693980309
0.0005194529030289152
0.0004726056916151668
0.0004533156633859763
0.00042575848020141833
0.00036788839551384685
0.0002879725642786291
0.0002218353246356902
0.00016672095826657444
9.507228198672396e-05
3.444647898069667e-05
-6.889295796140132e-06
-2.342360570687485e-05
-4.5469352254521147e-05
-7.027081712062322e-05
-8.680512703135793e-05
-9.507228198672531e-05
-0.00010333943694209268
-0.0001226294651712832
-0.00014467521171892948
-0.000150186648355841
-0.0001612095216296642
-0.00017498811322194308
-0.0001777438315403989
-0.00016947667658503157
-0.00016672095826657574
-0.00015569808499275262
-0.0001612095216296642
-0.00016672095826657574
-0.0001584538033112084
-0.0001612095216296642
-0.00019152242313267784
-0.00017223239490348733
-0.00013089662012665053
-0.0001198737468528274
-0.00012538518348973897
-0.0001171180285343716
-0.00012814090180819475
-0.00011436231021591582
-0.00011436231021591582
-0.00011160659189746003
-0.00011436231021591582
-0.00011160659189746003
-8.680512703135793e-05
-6.475938048371164e-05
-5.3736507209888505e-05
-3.4446478980697995e-05
-2.066788738841907e-05
-9.64501411459592e-06
1.3778591592272275e-06
6.8892957961388014e-06
2.6179324025329308e-05
5.098078889143139e-05
6.751509880216611e-05
7.30265354390777e-05
5.9247943846798756e-05
4.546935225451981e-05
3.720219729915245e-05
3.169076066224089e-05
2.8935042343785094e-05
1.5156450751506162e-05
-1.7912169069963278e-05
-1.7912169069963278e-05
-2.066788738841907e-05
-1.7912169069963278e-05
-3.720219729915378e-05
-7.57822537575348e-05
-8.680512703135793e-05
-9.231656366826955e-05
-7.57822537575348e-05
-8.680512703135793e-05
-0.00010609515526054846
-0.00011436231021591582
-9.78280003051811e-05
-9.78280003051811e-05
-0.0001198737468528274
-0.00013089662012665053
-0.00011436231021591582
-0.00010885087357900426
-7.027081712062322e-05
5.9247943846798756e-05
0.00023285819790951333
0.0004064684519722279
0.0005800787060349425
0.0007399103685053779
0.0009107649042496368
0.0009796578622110316
0.0006351930724040583
-0.0001777438315403989
-0.0013819927367055777
-0.002299646936751355
-0.0023960970778973073
-0.002145326710917831
-0.001883533470664531
-0.0016162287937743196
-0.0013213669336995504
-0.0009493449607080192
-0.0005855901426718552
-0.0001997895780880452
-0.00014191949340047367
-9.507228198672531e-05
-5.9247943846800084e-05
-3.169076066224221e-05
-1.7912169069963278e-05
9.64501411459459e-06
3.9957915617608246e-05
5.098078889143139e-05
6.751509880216611e-05
8.404940871290084e-05
9.782800030517979e-05
0.00011436231021591448
