-0.00010333943694209268
-0.00010333943694209268
-0.00010333943694209268
-9.78280003051811e-05
-8.956084534981374e-05
-8.680512703135793e-05
-8.956084534981374e-05
-8.680512703135793e-05
-7.85379720759906e-05
-8.129369039444639e-05
-9.231656366826955e-05
-9.507228198672531e-05
-8.404940871290214e-05
-6.751509880216745e-05
-5.6492225528344285e-05
-5.098078889143272e-05
-4.8225070572976926e-05
-5.098078889143272e-05
-5.6492225528344285e-05
-5.9247943846800084e-05
-5.9247943846800084e-05
-6.475938048371164e-05
-7.027081712062322e-05
-8.129369039444639e-05
-0.00010058371862363688
-0.00011160659189746003
-0.00011436231021591582
-0.0001198737468528274
-0.0001226294651712832
-0.00012814090180819475
-0.0001364080567635621
-0.00014191949340047367
-0.00014191949340047367
-0.00014191949340047367
-0.00014191949340047367
-0.00014191949340047367
-0.00014467521171892948
-0.00014743093003738526
-0.000150186648355841
-0.000150186648355841
-0.00016672095826657574
-0.00021632388799877996
-0.0002549039444571609
-0.0001997895780880452
-6.200366216525588e-05
0.00017774383154039756
0.000560788677805752
0.001007215045395589
0.0013296340886549166
0.0014481299763485153
0.0012772754406042562
0.0009135206225680924
0.0005029185931181804
0.00014191949340047234
-5.3736507209888505e-05
-0.00013089662012665053
-0.00014467521171892948
-0.000150186648355841
-0.0001612095216296642
-0.0001777438315403989
-0.00018601098649576628
-0.00019427814145113364
-0.00020254529640650095
-0.00020254529640650095
-0.00020254529640650095
-0.0001997895780880452
-0.00020254529640650095
-0.0001997895780880452
-0.00019703385976958942
-0.00019427814145113364
-0.00018876670481422206
-0.00019152242313267784
-0.00019152242313267784
-0.00018601098649576628
-0.00018049954985885472
-0.00018049954985885472
-0.00018325526817731047
-0.00018325526817731047
-0.0001777438315403989
-0.00017498811322194308
-0.00016947667658503157
-0.00016947667658503157
-0.00017223239490348733
-0.00017223239490348733
-0.00016396523994811996
-0.0001584538033112084
-0.0001584538033112084
-0.0001612095216296642
-0.0001612095216296642
-0.0001584538033112084
-0.00015569808499275262
-0.000150186648355841
-0.000150186648355841
-0.000150186648355841
-0.000150186648355841
-0.00014743093003738526
-0.00014467521171892948
-0.000150186648355841
-0.00015294236667429682
-0.000150186648355841
-0.00014743093003738526
-0.000150186648355841
-0.000150186648355841
-0.00014743093003738526
-0.0001391637750820179
-0.00013089662012665053
-0.0001226294651712832
-0.0001198737468528274
-0.0001198737468528274
-0.0001198737468528274
-0.0001198737468528274
-0.0001171180285343716
-0.0001171180285343716
-0.0001226294651712832
-0.00012814090180819475
-0.00012814090180819475
-0.00012538518348973897
-0.00012814090180819475
-0.0001336523384451063
-0.0001336523384451063
-0.00012814090180819475
-0.00012538518348973897
-0.00012538518348973897
-0.00013089662012665053
-0.00012814090180819475
-0.0001226294651712832
-0.0001171180285343716
-0.0001171180285343716
-0.0001226294651712832
-0.00012538518348973897
-0.0001226294651712832
-0.0001171180285343716
-0.0001171180285343716
-0.0001198737468528274
-0.0001198737468528274
-0.00011436231021591582
-0.00011160659189746003
-0.0001171180285343716
-0.0001198737468528274
-0.0001171180285343716
-0.0001171180285343716
-0.00011436231021591582
-0.00011160659189746003
-0.00011436231021591582
-0.00011436231021591582
-0.00010885087357900426
-0.00010333943694209268
-0.00010058371862363688
-0.00010333943694209268
-0.00011160659189746003
-0.00011160659189746003
-0.00010333943694209268
-9.507228198672531e-05
-8.680512703135793e-05
-7.85379720759906e-05
-6.751509880216745e-05
-6.475938048371164e-05
-6.751509880216745e-05
-7.57822537575348e-05
-7.85379720759906e-05
-7.57822537575348e-05
-7.302653543907902e-05
-8.129369039444639e-05
-0.00010058371862363688
-0.0001198737468528274
-0.00012538518348973897
-0.00012538518348973897
-0.00012814090180819475
-0.0001391637750820179
-0.00014743093003738526
-0.00014743093003738526
-0.00014743093003738526
-0.00014467521171892948
-0.00014743093003738526
-0.000150186648355841
-0.00015294236667429682
-0.00015294236667429682
-0.000150186648355841
-0.00015569808499275262
-0.00016396523994811996
-0.00020254529640650095
-0.00024939250782024937
-0.0002218353246356915
-0.00010058371862363688
0.00010333943694209132
0.0004422927901121532
0.000896986312657358
0.001293809750514991
0.001500488624399175
0.0014260842298008686
0.0010871308766308072
0.000676528847180895
0.00027970540932326175
2.066788738841773e-05
-9.78280003051811e-05
-0.00015294236667429682
-0.0001584538033112084
-0.00017498811322194308
-0.00019427814145113364
-0.0002080567330434125
-0.0002108124513618684
-0.0002108124513618684
-0.0002108124513618684
-0.0002108124513618684
-0.00021356816968032413
-0.00021632388799877996
-0.00020530101472495681
-0.0001997895780880452
-0.0001997895780880452
-0.00020254529640650095
-0.00020254529640650095
-0.0001997895780880452
-0.0001997895780880452
-0.00019703385976958942
-0.00019427814145113364
-0.00019427814145113364
-0.00019427814145113364
-0.00018325526817731047
-0.00018049954985885472
-0.00018049954985885472
-0.00018325526817731047
-0.00018049954985885472
-0.00018049954985885472
-0.00017498811322194308
-0.00017223239490348733
-0.00017498811322194308
-0.0001777438315403989
-0.00017498811322194308
-0.00016672095826657574
-0.00016396523994811996
-0.00016672095826657574
-0.00016672095826657574
-0.0001584538033112084
-0.00015294236667429682
-0.00015294236667429682
-0.00015294236667429682
-0.00015569808499275262
-0.00015569808499275262
-0.00015569808499275262
-0.000150186648355841
-0.000150186648355841
-0.00014743093003738526
-0.0001364080567635621
-0.00012814090180819475
-0.0001226294651712832
-0.0001171180285343716
-0.00011436231021591582
-0.00011436231021591582
-0.00011160659189746003
-0.00010885087357900426
-0.00011436231021591582
-0.0001226294651712832
-0.00012538518348973897
-0.00012814090180819475
-0.00012814090180819475
-0.00013089662012665053
-0.00013089662012665053
-0.0001364080567635621
-0.00012814090180819475
-0.00012814090180819475
-0.00012814090180819475
-0.00012814090180819475
-0.00012538518348973897
-0.0001226294651712832
-0.0001198737468528274
-0.0001198737468528274
-0.0001226294651712832
-0.0001198737468528274
-0.0001198737468528274
-0.00011436231021591582
-0.0001171180285343716
-0.0001198737468528274
-0.0001198737468528274
-0.0001198737468528274
-0.0001171180285343716
-0.00011436231021591582
-0.0001171180285343716
-0.0001171180285343716
-0.0001198737468528274
-0.0001171180285343716
-0.0001171180285343716
-0.0001226294651712832
-0.0001226294651712832
-0.0001171180285343716
-0.00011436231021591582
-0.00011160659189746003
-0.00011160659189746003
-0.00011160659189746003
-0.00011160659189746003
-0.00011160659189746003
-0.00011160659189746003
-0.00011436231021591582
-0.00010885087357900426
-9.507228198672531e-05
-7.302653543907902e-05
-6.751509880216745e-05
-7.027081712062322e-05
-7.302653543907902e-05
-7.85379720759906e-05
-7.302653543907902e-05
-6.751509880216745e-05
-7.57822537575348e-05
-8.956084534981374e-05
-0.00010609515526054846
-0.0001171180285343716
-0.0001198737468528274
-0.0001226294651712832
-0.00013089662012665053
-0.0001391637750820179
-0.00014191949340047367
-0.00014191949340047367
-0.00014467521171892948
-0.000150186648355841
-0.00015569808499275262
-0.00015569808499275262
-0.000150186648355841
-0.00014191949340047367
-0.00014743093003738526
-0.00015569808499275262
-0.00018601098649576628
-0.00023561391622797047
-0.00024388107118333775
-0.000150186648355841
3.169076066224089e-05
0.00034584264896620056
0.0007977804531929496
0.001246962539101243
0.0015225343709468217
0.0015418243991760121
0.0012690082856488892
0.0008611619745174325
0.00041749132524605104
9.507228198672396e-05
-5.9247943846800084e-05
-0.0001198737468528274
-0.0001364080567635621
-0.00014191949340047367
-0.00016672095826657574
-0.00019152242313267784
-0.0001997895780880452
-0.00020254529640650095
-0.00020530101472495681
-0.0002080567330434125
-0.0002108124513618684
-0.0002080567330434125
-0.00020254529640650095
-0.00019703385976958942
-0.0001997895780880452
-0.00020254529640650095
-0.00020254529640650095
-0.00019703385976958942
-0.00019152242313267784
-0.00019152242313267784
-0.00019427814145113364
-0.00019152242313267784
-0.00018601098649576628
-0.00018049954985885472
-0.00018049954985885472
-0.00018049954985885472
-0.0001777438315403989
-0.00017498811322194308
-0.00016672095826657574
-0.00016672095826657574
-0.00016672095826657574
-0.00016396523994811996
-0.0001584538033112084
-0.0001584538033112084
-0.00015569808499275262
-0.00015569808499275262
-0.00015294236667429682
-0.00014743093003738526
-0.00014191949340047367
-0.00014191949340047367
-0.00014743093003738526
-0.00014743093003738526
-0.00014467521171892948
-0.00014191949340047367
-0.0001391637750820179
-0.0001364080567635621
-0.00014191949340047367
-0.0001391637750820179
-0.0001226294651712832
-0.00011436231021591582
-0.00011160659189746003
-0.00010885087357900426
-0.00010058371862363688
-9.231656366826955e-05
-8.956084534981374e-05
-9.78280003051811e-05
-0.00010609515526054846
-0.00011160659189746003
-0.00011160659189746003
-0.00011436231021591582
-0.0001198737468528274
-0.00012538518348973897
-0.00012814090180819475
-0.00012538518348973897
-0.0001226294651712832
-0.00012538518348973897
-0.00012538518348973897
-0.0001226294651712832
-0.0001198737468528274
-0.0001198737468528274
-0.0001171180285343716
-0.0001198737468528274
-0.0001171180285343716
-0.00010885087357900426
-0.00010333943694209268
-0.00010333943694209268
-0.00010609515526054846
-0.00010333943694209268
-0.00010058371862363688
-9.78280003051811e-05
-9.78280003051811e-05
-0.00010333943694209268
-0.00010609515526054846
-0.00010609515526054846
-0.00010885087357900426
-0.00010885087357900426
-0.00011436231021591582
-0.00011436231021591582
-0.00011436231021591582
-0.00011160659189746003
-0.00010609515526054846
-0.00010333943694209268
-0.00010609515526054846
-0.00010885087357900426
-0.00010333943694209268
-9.78280003051811e-05
-0.00010058371862363688
-0.00010885087357900426
-0.00011160659189746003
-0.00010333943694209268
-8.956084534981374e-05
-7.57822537575348e-05
-6.751509880216745e-05
-5.9247943846800084e-05
-5.3736507209888505e-05
-5.3736507209888505e-05
-6.200366216525588e-05
-6.475938048371164e-05
-6.200366216525588e-05
-6.751509880216745e-05
-9.231656366826955e-05
-0.00011160659189746003
-0.0001226294651712832
-0.0001226294651712832
-0.0001226294651712832
-0.00012814090180819475
-0.0001364080567635621
-0.00014191949340047367
-0.00014191949340047367
-0.0001391637750820179
-0.0001364080567635621
-0.0001391637750820179
-0.0001391637750820179
-0.0001391637750820179
-0.00014191949340047367
-0.00014191949340047367
-0.00015294236667429682
-0.00019427814145113364
-0.0002466367895017936
-0.00023285819790951464
-0.00011436231021591582
9.23165636682682e-05
0.0004340256351567857
0.0009162763408865484
0.0013654584267948416
0.0016244959487296858
0.0015996944838635836
0.0012772754406042562
0.0008336047913328749
0.0003844227054245816
8.68051270313566e-05
-4.5469352254521147e-05
-0.00010609515526054846
-0.00012538518348973897
-0.0001391637750820179
-0.00016672095826657574
-0.00018325526817731047
-0.00019427814145113364
-0.00020254529640650095
-0.0002080567330434125
-0.00020530101472495681
-0.0001997895780880452
-0.0001997895780880452
-0.0001997895780880452
-0.00019703385976958942
-0.00019427814145113364
-0.00019427814145113364
-0.00019427814145113364
-0.00019427814145113364
-0.00019152242313267784
-0.00019152242313267784
-0.00018601098649576628
-0.0001777438315403989
-0.0001777438315403989
-0.0001777438315403989
-0.00017223239490348733
-0.00016947667658503157
-0.00016947667658503157
-0.00016672095826657574
-0.00016672095826657574
-0.00016396523994811996
-0.0001584538033112084
-0.00015294236667429682
-0.00015294236667429682
-0.000150186648355841
-0.00014467521171892948
-0.0001391637750820179
-0.0001336523384451063
-0.0001336523384451063
-0.00013089662012665053
-0.00012538518348973897
-0.00012538518348973897
-0.00012538518348973897
-0.0001336523384451063
-0.0001364080567635621
-0.0001336523384451063
-0.00013089662012665053
-0.00013089662012665053
-0.00013089662012665053
-0.00013089662012665053
-0.0001198737468528274
-0.00010885087357900426
-0.00010333943694209268
-9.78280003051811e-05
-9.78280003051811e-05
-9.507228198672531e-05
-9.507228198672531e-05
-9.78280003051811e-05
-0.00010333943694209268
-0.00011160659189746003
-0.00011436231021591582
-0.00010885087357900426
-0.00011160659189746003
-0.0001198737468528274
-0.0001198737468528274
-0.0001171180285343716
-0.00011160659189746003
-0.00010885087357900426
-0.00011436231021591582
-0.00011436231021591582
-0.00011160659189746003
-0.00010885087357900426
-0.00010333943694209268
-0.00010333943694209268
-0.00010058371862363688
-9.78280003051811e-05
-9.78280003051811e-05
-9.507228198672531e-05
-9.231656366826955e-05
-9.78280003051811e-05
-0.00010333943694209268
-9.78280003051811e-05
-9.507228198672531e-05
-9.231656366826955e-05
-9.507228198672531e-05
-0.00010058371862363688
-0.00010333943694209268
-9.78280003051811e-05
-9.507228198672531e-05
-9.507228198672531e-05
-9.507228198672531e-05
-9.507228198672531e-05
-9.507228198672531e-05
-9.231656366826955e-05
-0.00010058371862363688
-0.00010333943694209268
-9.78280003051811e-05
-9.231656366826955e-05
-8.129369039444639e-05
-7.027081712062322e-05
-5.9247943846800084e-05
-4.8225070572976926e-05
-4.8225070572976926e-05
-5.098078889143272e-05
-5.3736507209888505e-05
-5.3736507209888505e-05
-5.6492225528344285e-05
-6.200366216525588e-05
-7.302653543907902e-05
-9.78280003051811e-05
-0.00011436231021591582
-0.0001198737468528274
-0.0001171180285343716
-0.0001198737468528274
-0.00012538518348973897
-0.00013089662012665053
-0.00013089662012665053
-0.00013089662012665053
-0.0001336523384451063
-0.0001364080567635621
-0.0001391637750820179
-0.0001364080567635621
-0.0001364080567635621
-0.0001364080567635621
-0.0001391637750820179
-0.0001612095216296642
-0.00021632388799877996
-0.00026592681773098404
-0.0002108124513618684
-5.6492225528344285e-05
0.00020254529640649968
0.0006186587624933234
0.001128466651407644
0.001530801525902189
0.0017071674982833593
0.001558358709086747
0.001167046707866025
0.000701330312046997
0.0002769496910048059
3.444647898069667e-05
-7.302653543907902e-05
-0.00011436231021591582
-0.00012538518348973897
-0.00014191949340047367
-0.00016672095826657574
-0.00018601098649576628
-0.00019427814145113364
-0.00019427814145113364
-0.00019703385976958942
-0.00019703385976958942
-0.00019703385976958942
-0.0001997895780880452
-0.0001997895780880452
-0.00019703385976958942
-0.00018876670481422206
-0.00018601098649576628
-0.00018601098649576628
-0.00018325526817731047
-0.00017498811322194308
-0.00017223239490348733
-0.00017223239490348733
-0.00017223239490348733
-0.00017223239490348733
-0.00016396523994811996
-0.0001584538033112084
-0.0001612095216296642
-0.00015569808499275262
-0.00015569808499275262
-0.000150186648355841
-0.00014467521171892948
-0.00014191949340047367
-0.00014467521171892948
-0.00014191949340047367
-0.0001364080567635621
-0.00012814090180819475
-0.0001226294651712832
-0.0001226294651712832
-0.0001226294651712832
-0.0001198737468528274
-0.0001171180285343716
-0.0001171180285343716
-0.0001198737468528274
-0.0001226294651712832
-0.00012538518348973897
-0.0001226294651712832
-0.0001226294651712832
-0.00012538518348973897
-0.0001226294651712832
-0.0001198737468528274
-0.00011160659189746003
-0.00010333943694209268
-0.00010058371862363688
-0.00010058371862363688
-9.78280003051811e-05
-9.507228198672531e-05
-9.231656366826955e-05
-9.231656366826955e-05
-9.507228198672531e-05
-9.78280003051811e-05
-9.78280003051811e-05
-9.78280003051811e-05
-0.00010058371862363688
-0.00010609515526054846
-0.00010609515526054846
-0.00010333943694209268
-0.00010058371862363688
-9.78280003051811e-05
-9.507228198672531e-05
-9.507228198672531e-05
-9.231656366826955e-05
-8.680512703135793e-05
-8.404940871290214e-05
-8.404940871290214e-05
-8.680512703135793e-05
-8.404940871290214e-05
-7.85379720759906e-05
-7.57822537575348e-05
-7.85379720759906e-05
-7.85379720759906e-05
-7.302653543907902e-05
-7.027081712062322e-05
-7.57822537575348e-05
-7.57822537575348e-05
-7.57822537575348e-05
-7.57822537575348e-05
-6.751509880216745e-05
-6.751509880216745e-05
-7.027081712062322e-05
-7.027081712062322e-05
-6.751509880216745e-05
-6.751509880216745e-05
-6.751509880216745e-05
-7.027081712062322e-05
-7.302653543907902e-05
-7.027081712062322e-05
-5.3736507209888505e-05
-4.2713633936065354e-05
-3.720219729915378e-05
-3.169076066224221e-05
-2.8935042343786426e-05
-2.6179324025330647e-05
-2.8935042343786426e-05
-3.169076066224221e-05
-3.4446478980697995e-05
-4.2713633936065354e-05
-5.3736507209888505e-05
-6.475938048371164e-05
-8.129369039444639e-05
-9.507228198672531e-05
-9.78280003051811e-05
-9.78280003051811e-05
-9.78280003051811e-05
-0.00010333943694209268
-0.00011160659189746003
-0.0001171180285343716
-0.00011436231021591582
-0.00011160659189746003
-0.00011160659189746003
-0.00011436231021591582
-0.00011436231021591582
-0.0001198737468528274
-0.0001198737468528274
-0.0001226294651712832
-0.00015569808499275262
-0.0002190796063172357
-0.00021632388799877996
-0.00011160659189746003
7.853797207598924e-05
0.00040371273365377215
0.0008721848477912556
0.0013158554970626377
0.0015721373006790259
0.0015638701457236582
0.0012634968490119777
0.0008446276646066979
0.00041197988860913943
0.00010058371862363556
-3.995791561760957e-05
-9.507228198672531e-05
-0.00011160659189746003
-0.0001198737468528274
-0.00015569808499275262
-0.0001612095216296642
-0.00016947667658503157
-0.00017498811322194308
-0.00017498811322194308
-0.00017223239490348733
-0.00017223239490348733
-0.00017223239490348733
-0.00017223239490348733
-0.00016672095826657574
-0.0001584538033112084
-0.0001584538033112084
-0.0001612095216296642
-0.0001612095216296642
-0.00015294236667429682
-0.00014743093003738526
-0.0001391637750820179
-0.0001391637750820179
-0.00014191949340047367
-0.0001391637750820179
-0.0001391637750820179
-0.0001364080567635621
-0.0001336523384451063
-0.0001336523384451063
-0.00013089662012665053
-0.0001226294651712832
-0.00011436231021591582
-0.00011160659189746003
-0.00011436231021591582
-0.00011436231021591582
-0.00010885087357900426
-0.00010058371862363688
-9.507228198672531e-05
-9.231656366826955e-05
-9.231656366826955e-05
-8.956084534981374e-05
-8.680512703135793e-05
-8.680512703135793e-05
-8.956084534981374e-05
-9.231656366826955e-05
-9.507228198672531e-05
-9.507228198672531e-05
-9.231656366826955e-05
-9.507228198672531e-05
-9.78280003051811e-05
-9.78280003051811e-05
-9.231656366826955e-05
-8.129369039444639e-05
-7.85379720759906e-05
-7.57822537575348e-05
-7.302653543907902e-05
-7.302653543907902e-05
-7.302653543907902e-05
-7.302653543907902e-05
-7.57822537575348e-05
-8.129369039444639e-05
-8.404940871290214e-05
-8.404940871290214e-05
-8.404940871290214e-05
-8.680512703135793e-05
-8.680512703135793e-05
-8.404940871290214e-05
-7.57822537575348e-05
-8.129369039444639e-05
-8.129369039444639e-05
-7.85379720759906e-05
-7.302653543907902e-05
-6.751509880216745e-05
-6.751509880216745e-05
-7.027081712062322e-05
-7.027081712062322e-05
-6.475938048371164e-05
-6.200366216525588e-05
-6.200366216525588e-05
-6.751509880216745e-05
-6.751509880216745e-05
-6.200366216525588e-05
-6.200366216525588e-05
-6.200366216525588e-05
-6.475938048371164e-05
-6.200366216525588e-05
-5.6492225528344285e-05
-4.8225070572976926e-05
-4.8225070572976926e-05
-4.8225070572976926e-05
-4.5469352254521147e-05
-4.5469352254521147e-05
-4.5469352254521147e-05
-4.2713633936065354e-05
-3.995791561760957e-05
-3.169076066224221e-05
-2.066788738841907e-05
-9.64501411459592e-06
1.3778591592272275e-06
-1.377859159228559e-06
-6.889295796140132e-06
-1.240073243305171e-05
-9.64501411459592e-06
-6.889295796140132e-06
-1.5156450751507488e-05
-2.8935042343786426e-05
-4.8225070572976926e-05
-6.200366216525588e-05
-6.475938048371164e-05
-6.200366216525588e-05
-6.751509880216745e-05
-7.57822537575348e-05
-7.85379720759906e-05
-7.85379720759906e-05
-8.404940871290214e-05
-8.680512703135793e-05
-9.507228198672531e-05
-9.231656366826955e-05
-8.956084534981374e-05
-8.680512703135793e-05
-9.231656366826955e-05
-0.00010058371862363688
-0.00010609515526054846
-0.0001364080567635621
-0.00018601098649576628
-0.00019152242313267784
-0.00010058371862363688
7.578225375753347e-05
0.0003816669871061258
0.0012304282291905084
0.00146466428625925
0.00146466428625925
0.0011918481727321271
0.0008115590447852286
0.0004092241702906837
9.507228198672396e-05
-5.3736507209888505e-05
-0.00010058371862363688
-0.00010058371862363688
-0.00010058371862363688
-0.0001198737468528274
-0.0001364080567635621
-0.00014191949340047367
-0.00014191949340047367
-0.00014467521171892948
-0.000150186648355841
-0.000150186648355841
-0.000150186648355841
-0.00014467521171892948
-0.00014191949340047367
-0.00014467521171892948
-0.00014743093003738526
-0.00014467521171892948
-0.0001391637750820179
-0.00013089662012665053
-0.00013089662012665053
-0.00013089662012665053
-0.00013089662012665053
-0.00012814090180819475
-0.0001226294651712832
-0.0001226294651712832
-0.00012538518348973897
-0.00012538518348973897
-0.0001226294651712832
-0.00011436231021591582
-0.00010609515526054846
-0.00010885087357900426
-0.00011160659189746003
-0.00010609515526054846
-0.00010058371862363688
-9.78280003051811e-05
-9.231656366826955e-05
-9.507228198672531e-05
-9.231656366826955e-05
-8.956084534981374e-05
-8.404940871290214e-05
-8.404940871290214e-05
-8.404940871290214e-05
-8.404940871290214e-05
-8.404940871290214e-05
-8.404940871290214e-05
-8.680512703135793e-05
-9.231656366826955e-05
-9.507228198672531e-05
-9.231656366826955e-05
-8.680512703135793e-05
-8.129369039444639e-05
-8.404940871290214e-05
-8.129369039444639e-05
-7.57822537575348e-05
-7.027081712062322e-05
-6.751509880216745e-05
-7.027081712062322e-05
-7.027081712062322e-05
-7.027081712062322e-05
-7.57822537575348e-05
-8.129369039444639e-05
-8.680512703135793e-05
-8.680512703135793e-05
-8.129369039444639e-05
-7.85379720759906e-05
-8.129369039444639e-05
-8.680512703135793e-05
-8.956084534981374e-05
-8.404940871290214e-05
-8.129369039444639e-05
-8.129369039444639e-05
-8.680512703135793e-05
-8.680512703135793e-05
-8.404940871290214e-05
-8.129369039444639e-05
-8.129369039444639e-05
-8.129369039444639e-05
-7.85379720759906e-05
-7.85379720759906e-05
-7.57822537575348e-05
-7.57822537575348e-05
-8.129369039444639e-05
-8.404940871290214e-05
-8.404940871290214e-05
-7.85379720759906e-05
-7.302653543907902e-05
-6.751509880216745e-05
-6.751509880216745e-05
-6.475938048371164e-05
-6.200366216525588e-05
-5.6492225528344285e-05
-5.9247943846800084e-05
-6.475938048371164e-05
-6.475938048371164e-05
-5.3736507209888505e-05
-3.720219729915378e-05
-2.6179324025330647e-05
-2.8935042343786426e-05
-3.4446478980697995e-05
-3.4446478980697995e-05
-3.4446478980697995e-05
-3.169076066224221e-05
-3.4446478980697995e-05
-4.2713633936065354e-05
-5.3736507209888505e-05
-6.751509880216745e-05
-8.404940871290214e-05
-9.507228198672531e-05
-9.78280003051811e-05
-0.00010058371862363688
-0.00010609515526054846
-0.00011160659189746003
-0.0001171180285343716
-0.0001226294651712832
-0.0001226294651712832
-0.0001198737468528274
-0.00011436231021591582
-0.00011160659189746003
-0.0001226294651712832
-0.0001226294651712832
-0.00012814090180819475
-0.0001612095216296642
-0.00022459104295414727
-0.00021632388799877996
-0.00011160659189746003
7.853797207598924e-05
0.0004009570153353164
0.0008391162279697863
0.0012359396658274198
0.0014508856946669714
0.0014178170748455018
0.0011174437781338207
0.0007151089036392759
0.0003072625925078196
3.444647898069667e-05
-8.404940871290214e-05
-0.0001226294651712832
-0.00012538518348973897
-0.0001336523384451063
-0.00015294236667429682
-0.00016672095826657574
-0.00017223239490348733
-0.0001777438315403989
-0.00018325526817731047
-0.00018601098649576628
-0.00018049954985885472
-0.0001777438315403989
-0.00018049954985885472
-0.00018049954985885472
-0.0001777438315403989
-0.00017498811322194308
-0.00016947667658503157
-0.00016672095826657574
-0.00016947667658503157
-0.00017223239490348733
-0.00017223239490348733
-0.00016947667658503157
-0.0001584538033112084
-0.0001584538033112084
-0.00016396523994811996
-0.0001584538033112084
-0.00015569808499275262
-0.00015294236667429682
-0.00015569808499275262
-0.0001584538033112084
-0.00015569808499275262
-0.00014743093003738526
-0.00014191949340047367
-0.0001391637750820179
-0.00014191949340047367
-0.00014191949340047367
-0.0001364080567635621
-0.00013089662012665053
-0.0001336523384451063
-0.0001391637750820179
-0.0001336523384451063
-0.00012814090180819475
-0.0001226294651712832
-0.00012814090180819475
-0.0001336523384451063
-0.00013089662012665053
-0.00013089662012665053
-0.00012814090180819475
-0.00012814090180819475
-0.0001226294651712832
-0.0001171180285343716
-0.00010885087357900426
-0.00010333943694209268
-0.00010058371862363688
-0.00010333943694209268
-0.00010333943694209268
-0.00010058371862363688
-9.78280003051811e-05
-0.00010609515526054846
-0.00011160659189746003
-0.00010885087357900426
-0.00010885087357900426
-0.00010609515526054846
-0.00010885087357900426
-0.00011436231021591582
-0.00011160659189746003
-0.00011160659189746003
-0.00010885087357900426
-0.00010885087357900426
-0.00011160659189746003
-0.00011160659189746003
-0.00011160659189746003
-0.00010609515526054846
-0.00010609515526054846
-0.00010885087357900426
-0.00010885087357900426
-0.00010333943694209268
-9.78280003051811e-05
-9.78280003051811e-05
-0.00010333943694209268
-0.00010609515526054846
-0.00010058371862363688
-0.00010333943694209268
-0.00010333943694209268
-0.00010885087357900426
-0.00010885087357900426
-0.00010885087357900426
-0.00010609515526054846
-0.00010058371862363688
-9.78280003051811e-05
-9.78280003051811e-05
-9.507228198672531e-05
-9.231656366826955e-05
-9.231656366826955e-05
-9.78280003051811e-05
-0.00010058371862363688
-0.00010058371862363688
-8.956084534981374e-05
-7.57822537575348e-05
-6.200366216525588e-05
-5.098078889143272e-05
-4.8225070572976926e-05
-4.5469352254521147e-05
-4.5469352254521147e-05
-5.098078889143272e-05
-5.6492225528344285e-05
-6.200366216525588e-05
-7.57822537575348e-05
-8.956084534981374e-05
-0.00010885087357900426
-0.00011436231021591582
-0.0001198737468528274
-0.0001198737468528274
-0.0001198737468528274
-0.00012538518348973897
-0.00013089662012665053
-0.0001364080567635621
-0.0001364080567635621
-0.0001364080567635621
-0.0001364080567635621
-0.0001364080567635621
-0.0001391637750820179
-0.00014191949340047367
-0.00014743093003738526
-0.0001584538033112084
-0.0002108124513618684
-0.0002466367895017936
-0.00018049954985885472
-2.6179324025330647e-05
0.00023010247959105753
0.0006241701991302349
0.0010733522850385282
0.0013985270466163114
0.001514267215991454
0.001324122652018005
0.0009438335240711064
0.0005194529030289152
0.00015845380331120705
-2.8935042343786426e-05
-0.00010885087357900426
-0.00014191949340047367
-0.00014467521171892948
-0.0001612095216296642
-0.00018049954985885472
-0.00019152242313267784
-0.0001997895780880452
-0.00020530101472495681
-0.00020530101472495681
-0.00020530101472495681
-0.0001997895780880452
-0.0001997895780880452
-0.00020254529640650095
-0.00020254529640650095
-0.0001997895780880452
-0.00019427814145113364
-0.00019152242313267784
-0.00019152242313267784
-0.00019152242313267784
-0.00018876670481422206
-0.00018601098649576628
-0.00018601098649576628
-0.00018601098649576628
-0.00018601098649576628
-0.00018325526817731047
-0.0001777438315403989
-0.00017223239490348733
-0.00017223239490348733
-0.00017498811322194308
-0.00017498811322194308
-0.00016672095826657574
-0.00016672095826657574
-0.00016396523994811996
-0.0001612095216296642
-0.00015569808499275262
-0.00014743093003738526
-0.00015294236667429682
-0.0001584538033112084
-0.00015294236667429682
-0.000150186648355841
-0.00014467521171892948
-0.00014191949340047367
-0.00014467521171892948
-0.00014743093003738526
-0.00014467521171892948
-0.00014191949340047367
-0.0001391637750820179
-0.0001364080567635621
-0.00012814090180819475
-0.0001226294651712832
-0.00011436231021591582
-0.00010609515526054846
-0.00010609515526054846
-0.00010333943694209268
-0.00010609515526054846
-0.00010609515526054846
-0.00010609515526054846
-0.00011436231021591582
-0.0001171180285343716
-0.0001171180285343716
-0.0001198737468528274
-0.0001226294651712832
-0.00012538518348973897
-0.00012538518348973897
-0.0001226294651712832
-0.0001226294651712832
-0.0001198737468528274
-0.0001198737468528274
-0.0001198737468528274
-0.0001171180285343716
-0.00011436231021591582
-0.00011160659189746003
-0.00011160659189746003
-0.00011436231021591582
-0.00011436231021591582
-0.00011436231021591582
-0.00011160659189746003
-0.00010885087357900426
-0.00011160659189746003
-0.00011436231021591582
-0.00011436231021591582
-0.00011436231021591582
-0.00011160659189746003
-0.00011160659189746003
-0.0001171180285343716
-0.00011160659189746003
-0.00011160659189746003
-0.00011160659189746003
-0.00011436231021591582
-0.00011436231021591582
-0.00011160659189746003
-0.00010609515526054846
-0.00010333943694209268
-0.00010609515526054846
-0.00010885087357900426
-0.00010885087357900426
-0.00010885087357900426
-0.00010058371862363688
-9.507228198672531e-05
-8.680512703135793e-05
-7.302653543907902e-05
-5.9247943846800084e-05
-5.6492225528344285e-05
-6.751509880216745e-05
-7.302653543907902e-05
-7.027081712062322e-05
-7.027081712062322e-05
-7.302653543907902e-05
-8.680512703135793e-05
-0.00010609515526054846
-0.0001226294651712832
-0.0001226294651712832
-0.0001198737468528274
-0.00012538518348973897
-0.0001364080567635621
-0.00014191949340047367
-0.00014191949340047367
-0.0001391637750820179
-0.00014191949340047367
-0.00014467521171892948
-0.000150186648355841
-0.00014467521171892948
-0.00014191949340047367
-0.00014743093003738526
-0.00015294236667429682
-0.00016672095826657574
-0.0002080567330434125
-0.00024939250782024937
-0.00020530101472495681
-7.027081712062322e-05
0.00016396523994811866
0.000547010086213473
0.0010292607919432355
0.0014123056382085901
0.0015859158922713046
0.0014591528496223384
0.001089886594949263
0.0006572388189517045
0.00025214822613870384
1.7912169069961946e-05
-8.956084534981374e-05
-0.0001336523384451063
-0.0001391637750820179
-0.000150186648355841
-0.0001777438315403989
-0.0001997895780880452
-0.00020254529640650095
-0.00020530101472495681
-0.00020530101472495681
-0.00020254529640650095
-0.00020530101472495681
-0.0002080567330434125
-0.0002080567330434125
-0.0001997895780880452
-0.00019703385976958942
-0.00019703385976958942
-0.00019703385976958942
-0.00019427814145113364
-0.00018876670481422206
-0.00018876670481422206
-0.00018601098649576628
-0.00018325526817731047
-0.00018049954985885472
-0.0001777438315403989
-0.00018049954985885472
-0.00018049954985885472
-0.00017498811322194308
-0.00016396523994811996
-0.00015569808499275262
-0.00015569808499275262
-0.0001584538033112084
-0.0001584538033112084
-0.00015294236667429682
-0.00014743093003738526
-0.000150186648355841
-0.00015294236667429682
-0.000150186648355841
-0.00014743093003738526
-0.00014191949340047367
-0.0001364080567635621
-0.0001391637750820179
-0.0001364080567635621
-0.0001336523384451063
-0.00013089662012665053
-0.00012538518348973897
-0.00012538518348973897
-0.00012814090180819475
-0.00012814090180819475
-0.0001171180285343716
-0.00010609515526054846
-0.00010333943694209268
-0.00010058371862363688
-9.507228198672531e-05
-8.956084534981374e-05
-8.680512703135793e-05
-8.956084534981374e-05
-9.78280003051811e-05
-0.00010609515526054846
-0.00010885087357900426
-0.00010885087357900426
-0.00010885087357900426
-0.00011436231021591582
-0.00011436231021591582
-0.00011436231021591582
-0.00011160659189746003
-0.00011160659189746003
-0.00010885087357900426
-0.00010885087357900426
-0.00010885087357900426
-0.00010609515526054846
-0.00010333943694209268
-0.00010058371862363688
-0.00010333943694209268
-0.00010058371862363688
-9.78280003051811e-05
-9.78280003051811e-05
-9.78280003051811e-05
-9.507228198672531e-05
-9.507228198672531e-05
-8.956084534981374e-05
-8.956084534981374e-05
-9.231656366826955e-05
-9.231656366826955e-05
-9.231656366826955e-05
-9.231656366826955e-05
-9.231656366826955e-05
-9.507228198672531e-05
-0.00010058371862363688
-0.00010058371862363688
-9.507228198672531e-05
-9.231656366826955e-05
-9.507228198672531e-05
-9.78280003051811e-05
-9.78280003051811e-05
-9.231656366826955e-05
-9.231656366826955e-05
-9.78280003051811e-05
-0.00010333943694209268
-9.507228198672531e-05
-8.129369039444639e-05
-6.475938048371164e-05
-5.9247943846800084e-05
-5.098078889143272e-05
-4.8225070572976926e-05
-4.8225070572976926e-05
-4.5469352254521147e-05
-4.5469352254521147e-05
-5.098078889143272e-05
-6.200366216525588e-05
-7.302653543907902e-05
-8.680512703135793e-05
-9.78280003051811e-05
-0.00010885087357900426
-0.00010885087357900426
-0.00011436231021591582
-0.0001198737468528274
-0.0001226294651712832
-0.00012814090180819475
-0.00013089662012665053
-0.0001336523384451063
-0.00013089662012665053
-0.00013089662012665053
-0.00013089662012665053
-0.0001336523384451063
-0.0001364080567635621
-0.00014191949340047367
-0.000150186648355841
-0.00018601098649576628
-0.00024112535286488197
-0.0002218353246356915
-9.78280003051811e-05
0.00012814090180819342
0.0004946514381628131
0.0009796578622110316
0.0014123056382085901
0.0016437859769588762
0.0015859158922713046
0.0012414511024643313
0.0007950247348744939
7.30265354390777e-05
-5.3736507209888505e-05
-0.00010609515526054846
-0.00012538518348973897
-0.00014191949340047367
-0.00016396523994811996
-0.00018325526817731047
-0.00018601098649576628
-0.00018876670481422206
-0.00019152242313267784
-0.00019427814145113364
-0.00019152242313267784
-0.00019152242313267784
-0.00019152242313267784
-0.00018876670481422206
-0.00018601098649576628
-0.00018876670481422206
-0.00018601098649576628
-0.00018325526817731047
-0.00018049954985885472
-0.00018049954985885472
-0.0001777438315403989
-0.00017223239490348733
-0.00016947667658503157
-0.00017223239490348733
-0.00016947667658503157
-0.00016396523994811996
-0.0001584538033112084
-0.0001584538033112084
-0.0001584538033112084
-0.00015569808499275262
-0.000150186648355841
-0.00014743093003738526
-0.00014191949340047367
-0.0001391637750820179
-0.0001391637750820179
-0.0001364080567635621
-0.00013089662012665053
-0.00012538518348973897
-0.0001226294651712832
-0.00012538518348973897
-0.0001226294651712832
-0.0001198737468528274
-0.0001171180285343716
-0.0001198737468528274
-0.00012538518348973897
-0.0001226294651712832
-0.0001198737468528274
-0.0001198737468528274
-0.0001171180285343716
-0.00011436231021591582
-0.00010609515526054846
-0.00010058371862363688
-9.231656366826955e-05
-8.404940871290214e-05
-8.680512703135793e-05
-8.956084534981374e-05
-8.956084534981374e-05
-8.956084534981374e-05
-8.956084534981374e-05
-9.507228198672531e-05
-9.78280003051811e-05
-0.00010609515526054846
-0.00010885087357900426
-0.00011160659189746003
-0.00011160659189746003
-0.00011160659189746003
-0.00010609515526054846
-0.00010058371862363688
-9.78280003051811e-05
-0.00010058371862363688
-0.00010058371862363688
-9.78280003051811e-05
-9.231656366826955e-05
-8.680512703135793e-05
-8.680512703135793e-05
-8.956084534981374e-05
-8.956084534981374e-05
-8.404940871290214e-05
-8.129369039444639e-05
-8.129369039444639e-05
-8.129369039444639e-05
-8.129369039444639e-05
-8.129369039444639e-05
-8.129369039444639e-05
-8.129369039444639e-05
-8.680512703135793e-05
-8.680512703135793e-05
-8.129369039444639e-05
-7.85379720759906e-05
-8.129369039444639e-05
-8.129369039444639e-05
-8.404940871290214e-05
-8.404940871290214e-05
-8.129369039444639e-05
-8.404940871290214e-05
-8.680512703135793e-05
-8.404940871290214e-05
-7.302653543907902e-05
-5.6492225528344285e-05
-4.5469352254521147e-05
-3.995791561760957e-05
-3.720219729915378e-05
-3.995791561760957e-05
-3.995791561760957e-05
-3.995791561760957e-05
-4.5469352254521147e-05
-5.3736507209888505e-05
-6.200366216525588e-05
-7.85379720759906e-05
-9.231656366826955e-05
-0.00010058371862363688
-0.00010333943694209268
-0.00010609515526054846
-0.00011160659189746003
-0.00011436231021591582
-0.0001171180285343716
-0.00012538518348973897
-0.00012538518348973897
-0.0001226294651712832
-0.0001226294651712832
-0.0001198737468528274
-0.0001226294651712832
-0.00013089662012665053
-0.00014467521171892948
-0.00018601098649576628
-0.00024939250782024937
-0.00023561391622797047
-0.00011160659189746003
0.00011160659189745871
0.00048362856488898997
0.0009934364538033101
0.0014453742580300595
0.0016933889066910802
0.0016492974135957881
0.0013075883421072702
0.0008501391012436096
0.00038717842374303736
8.68051270313566e-05
-5.098078889143272e-05
-0.00010058371862363688
-0.00011436231021591582
-0.0001364080567635621
-0.0001612095216296642
-0.00018049954985885472
-0.00018601098649576628
-0.00018601098649576628
-0.00019152242313267784
-0.00019427814145113364
-0.00019152242313267784
-0.00019427814145113364
-0.00018876670481422206
-0.00018601098649576628
-0.00018876670481422206
-0.00018876670481422206
-0.00018325526817731047
-0.00018049954985885472
-0.00018049954985885472
-0.0001777438315403989
-0.00017223239490348733
-0.00016947667658503157
-0.00016396523994811996
-0.00016396523994811996
-0.00016672095826657574
-0.00016396523994811996
-0.00015569808499275262
-0.000150186648355841
-0.00015294236667429682
-0.00015294236667429682
-0.000150186648355841
-0.0001391637750820179
-0.0001336523384451063
-0.0001336523384451063
-0.00013089662012665053
-0.00012814090180819475
-0.0001226294651712832
-0.0001171180285343716
-0.00011436231021591582
-0.00011436231021591582
-0.00011160659189746003
-0.00011160659189746003
-0.00010609515526054846
-0.00010885087357900426
-0.0001171180285343716
-0.0001198737468528274
-0.0001198737468528274
-0.00011436231021591582
-0.0001171180285343716
-0.00011436231021591582
-0.00011160659189746003
-0.00010058371862363688
-8.956084534981374e-05
-8.680512703135793e-05
-8.404940871290214e-05
-8.404940871290214e-05
-8.129369039444639e-05
-8.129369039444639e-05
-9.231656366826955e-05
-0.00010058371862363688
-0.00010058371862363688
-0.00010058371862363688
-0.00010058371862363688
-0.00010333943694209268
-0.00010333943694209268
-0.00010333943694209268
-0.00010058371862363688
-9.78280003051811e-05
-9.507228198672531e-05
-9.231656366826955e-05
-8.956084534981374e-05
-8.956084534981374e-05
-8.404940871290214e-05
-8.129369039444639e-05
-7.85379720759906e-05
-8.129369039444639e-05
-8.404940871290214e-05
-7.57822537575348e-05
-7.027081712062322e-05
-7.302653543907902e-05
-7.57822537575348e-05
-7.57822537575348e-05
-7.57822537575348e-05
-7.302653543907902e-05
-7.302653543907902e-05
-7.57822537575348e-05
-7.302653543907902e-05
-7.027081712062322e-05
-6.475938048371164e-05
-6.475938048371164e-05
-7.027081712062322e-05
-7.57822537575348e-05
-7.57822537575348e-05
-7.57822537575348e-05
-7.027081712062322e-05
-5.9247943846800084e-05
-4.8225070572976926e-05
-3.4446478980697995e-05
-2.066788738841907e-05
-2.066788738841907e-05
-2.6179324025330647e-05
-3.169076066224221e-05
-3.4446478980697995e-05
-3.4446478980697995e-05
-3.720219729915378e-05
-4.5469352254521147e-05
-6.475938048371164e-05
-7.85379720759906e-05
-8.404940871290214e-05
-8.680512703135793e-05
-9.78280003051811e-05
-0.00010333943694209268
-0.00010609515526054846
-0.00010333943694209268
-0.00010333943694209268
-0.00011160659189746003
-0.00011160659189746003
-0.00011160659189746003
-0.00010885087357900426
-0.00010885087357900426
-0.0001198737468528274
-0.00013089662012665053
-0.00016396523994811996
-0.0002190796063172357
-0.0002108124513618684
-0.00010609515526054846
9.23165636682682e-05
0.0004340256351567857
0.0009107649042496368
0.0013434126802471958
0.0015748930189974813
0.0015390686808575565
0.001224916792553597
0.00081707048142214
0.00038993414206149314
9.507228198672396e-05
-4.5469352254521147e-05
-0.00010058371862363688
-0.00011160659189746003
-0.00011436231021591582
-0.0001336523384451063
-0.00015569808499275262
-0.00016672095826657574
-0.00016947667658503157
-0.00016672095826657574
-0.00016672095826657574
-0.00017223239490348733
-0.00017498811322194308
-0.00016947667658503157
-0.00016396523994811996
-0.0001584538033112084
-0.00015569808499275262
-0.0001584538033112084
-0.00015569808499275262
-0.00015294236667429682
-0.000150186648355841
-0.000150186648355841
-0.00015294236667429682
-0.000150186648355841
-0.00014467521171892948
-0.00014191949340047367
-0.0001364080567635621
-0.00013089662012665053
-0.00012538518348973897
-0.0001226294651712832
-0.0001198737468528274
-0.0001171180285343716
-0.0001198737468528274
-0.0001171180285343716
-0.00011436231021591582
-0.00010609515526054846
-0.00010058371862363688
-0.00010058371862363688
-9.78280003051811e-05
-9.231656366826955e-05
-8.956084534981374e-05
-8.956084534981374e-05
-8.956084534981374e-05
-8.956084534981374e-05
-8.956084534981374e-05
-8.956084534981374e-05
-9.507228198672531e-05
-9.78280003051811e-05
-9.507228198672531e-05
-8.956084534981374e-05
-8.404940871290214e-05
-8.404940871290214e-05
-8.404940871290214e-05
-8.129369039444639e-05
-7.302653543907902e-05
-6.751509880216745e-05
-6.751509880216745e-05
-7.027081712062322e-05
-7.57822537575348e-05
-7.85379720759906e-05
-7.85379720759906e-05
-7.85379720759906e-05
-8.129369039444639e-05
-8.404940871290214e-05
-8.129369039444639e-05
-8.129369039444639e-05
-8.129369039444639e-05
-8.404940871290214e-05
-8.404940871290214e-05
-7.85379720759906e-05
-7.302653543907902e-05
-6.751509880216745e-05
-7.027081712062322e-05
-7.302653543907902e-05
-7.302653543907902e-05
-6.751509880216745e-05
-6.475938048371164e-05
-6.200366216525588e-05
-6.475938048371164e-05
-6.475938048371164e-05
-6.200366216525588e-05
-5.3736507209888505e-05
-5.6492225528344285e-05
-5.6492225528344285e-05
-5.3736507209888505e-05
-5.098078889143272e-05
-4.2713633936065354e-05
-4.2713633936065354e-05
-3.995791561760957e-05
-3.995791561760957e-05
-4.2713633936065354e-05
-4.2713633936065354e-05
-3.995791561760957e-05
-3.4446478980697995e-05
-2.6179324025330647e-05
-1.240073243305171e-05
1.3778591592272275e-06
4.133577477683014e-06
-1.377859159228559e-06
-6.889295796140132e-06
-4.133577477684346e-06
-4.133577477684346e-06
-1.240073243305171e-05
-2.8935042343786426e-05
-4.5469352254521147e-05
-5.9247943846800084e-05
-5.9247943846800084e-05
-6.200366216525588e-05
-7.57822537575348e-05
-7.85379720759906e-05
-7.85379720759906e-05
-7.85379720759906e-05
-8.404940871290214e-05
-9.507228198672531e-05
-9.231656366826955e-05
-8.680512703135793e-05
-8.129369039444639e-05
-8.404940871290214e-05
-9.507228198672531e-05
-0.00010333943694209268
-0.0001226294651712832
-0.00016947667658503157
-0.0001997895780880452
-0.0001391637750820179
6.8892957961388014e-06
0.0002686825360494386
0.000676528847180895
0.0011201994964522765
0.0014123056382085901
0.0014839543144884403
0.0012772754406042562
0.0009190320592050041
0.0005194529030289152
0.000172232394903486
-1.5156450751507488e-05
-8.956084534981374e-05
-0.00010058371862363688
-9.507228198672531e-05
-0.00010609515526054846
-0.00012538518348973897
-0.0001336523384451063
-0.0001391637750820179
-0.0001336523384451063
-0.0001336523384451063
-0.0001391637750820179
-0.0001391637750820179
-0.0001364080567635621
-0.0001336523384451063
-0.0001336523384451063
-0.0001336523384451063
-0.0001364080567635621
-0.0001364080567635621
-0.00013089662012665053
-0.00012538518348973897
-0.0001226294651712832
-0.00012814090180819475
-0.00012538518348973897
-0.0001226294651712832
-0.0001171180285343716
-0.0001198737468528274
-0.0001226294651712832
-0.00011436231021591582
-0.00010885087357900426
-0.00010333943694209268
-0.00010333943694209268
-0.00010333943694209268
-0.00010058371862363688
-9.507228198672531e-05
-8.956084534981374e-05
-9.231656366826955e-05
-8.956084534981374e-05
-8.680512703135793e-05
-7.85379720759906e-05
-7.302653543907902e-05
-7.57822537575348e-05
-8.129369039444639e-05
-8.129369039444639e-05
-7.57822537575348e-05
-7.57822537575348e-05
-8.129369039444639e-05
-8.129369039444639e-05
-8.129369039444639e-05
-8.404940871290214e-05
-8.404940871290214e-05
-8.129369039444639e-05
-7.57822537575348e-05
-7.57822537575348e-05
-7.302653543907902e-05
-6.475938048371164e-05
-6.200366216525588e-05
-6.751509880216745e-05
-6.751509880216745e-05
-7.027081712062322e-05
-6.751509880216745e-05
-6.475938048371164e-05
-6.751509880216745e-05
-7.302653543907902e-05
-7.57822537575348e-05
-7.302653543907902e-05
-6.751509880216745e-05
-7.027081712062322e-05
-7.027081712062322e-05
-7.027081712062322e-05
-6.751509880216745e-05
-6.475938048371164e-05
-6.751509880216745e-05
-7.302653543907902e-05
-7.302653543907902e-05
-7.027081712062322e-05
-7.027081712062322e-05
-6.475938048371164e-05
-6.475938048371164e-05
-6.200366216525588e-05
-6.200366216525588e-05
-5.6492225528344285e-05
-5.3736507209888505e-05
-5.6492225528344285e-05
-5.3736507209888505e-05
-4.8225070572976926e-05
-4.8225070572976926e-05
-4.5469352254521147e-05
-4.5469352254521147e-05
-4.8225070572976926e-05
-3.995791561760957e-05
-2.6179324025330647e-05
-1.7912169069963278e-05
-9.64501411459592e-06
-9.64501411459592e-06
-9.64501411459592e-06
-1.240073243305171e-05
-1.240073243305171e-05
-1.7912169069963278e-05
-2.6179324025330647e-05
-3.169076066224221e-05
-4.5469352254521147e-05
-6.200366216525588e-05
-7.85379720759906e-05
-8.404940871290214e-05
-8.956084534981374e-05
-8.956084534981374e-05
-9.231656366826955e-05
-9.78280003051811e-05
-0.00010058371862363688
-0.00010058371862363688
-9.78280003051811e-05
-9.78280003051811e-05
-0.00010058371862363688
-0.00010333943694209268
-0.00010609515526054846
-0.00010885087357900426
-0.0001171180285343716
-0.00014191949340047367
-0.00019427814145113364
-0.00021632388799877996
-0.00014191949340047367
1.7912169069961946e-05
0.00029072828259708476
0.0007040860303654528
0.0011312223697260999
0.0014067942015716782
0.0014591528496223384
0.0012194053559166852
0.0008363605096513305
0.00042300276188296266
0.00010609515526054714
-4.5469352254521147e-05
-0.00010333943694209268
-0.00011436231021591582
-0.0001171180285343716
-0.0001364080567635621
-0.000150186648355841
-0.0001584538033112084
-0.00016947667658503157
-0.00017498811322194308
-0.00017223239490348733
-0.00016396523994811996
-0.00016396523994811996
-0.00016672095826657574
-0.00016396523994811996
-0.0001612095216296642
-0.0001584538033112084
-0.00015569808499275262
-0.00015569808499275262
-0.00015569808499275262
-0.0001584538033112084
-0.00015294236667429682
-0.00015294236667429682
-0.000150186648355841
-0.00014743093003738526
-0.00014191949340047367
-0.0001391637750820179
-0.00014191949340047367
-0.00014191949340047367
-0.00014191949340047367
-0.0001364080567635621
-0.0001336523384451063
-0.00013089662012665053
-0.0001336523384451063
-0.00013089662012665053
-0.00012538518348973897
-0.0001171180285343716
-0.0001171180285343716
-0.0001198737468528274
-0.0001198737468528274
-0.0001198737468528274
-0.0001171180285343716
-0.00011436231021591582
-0.0001171180285343716
-0.0001226294651712832
-0.0001226294651712832
-0.0001198737468528274
-0.00011436231021591582
-0.00011436231021591582
-0.0001198737468528274
-0.00011436231021591582
-0.00010609515526054846
-9.78280003051811e-05
-9.231656366826955e-05
-9.231656366826955e-05
-9.231656366826955e-05
-8.956084534981374e-05
-8.680512703135793e-05
-8.956084534981374e-05
-9.507228198672531e-05
-0.00010058371862363688
-0.00010058371862363688
-9.507228198672531e-05
-9.507228198672531e-05
-9.78280003051811e-05
-0.00010058371862363688
-0.00010058371862363688
-9.78280003051811e-05
-9.78280003051811e-05
-9.78280003051811e-05
-9.78280003051811e-05
-9.507228198672531e-05
-9.231656366826955e-05
-8.956084534981374e-05
-8.956084534981374e-05
-9.231656366826955e-05
-8.956084534981374e-05
-8.404940871290214e-05
-8.404940871290214e-05
-8.404940871290214e-05
-8.404940871290214e-05
-8.956084534981374e-05
-8.956084534981374e-05
-7.85379720759906e-05
-7.57822537575348e-05
-7.302653543907902e-05
-7.027081712062322e-05
-6.475938048371164e-05
-6.475938048371164e-05
-6.751509880216745e-05
-7.027081712062322e-05
-7.027081712062322e-05
-5.9247943846800084e-05
-4.2713633936065354e-05
-3.4446478980697995e-05
-2.8935042343786426e-05
-2.6179324025330647e-05
-2.8935042343786426e-05
-3.169076066224221e-05
-3.720219729915378e-05
-3.995791561760957e-05
-4.2713633936065354e-05
-5.098078889143272e-05
-5.9247943846800084e-05
-8.129369039444639e-05
-9.507228198672531e-05
-9.78280003051811e-05
-0.00010333943694209268
-0.00010885087357900426
-0.00011160659189746003
-0.0001198737468528274
-0.00012538518348973897
-0.00012538518348973897
-0.0001198737468528274
-0.0001171180285343716
-0.0001198737468528274
-0.0001198737468528274
-0.00012538518348973897
-0.00012538518348973897
-0.00012814090180819475
-0.00016396523994811996
-0.0002190796063172357
-0.0002080567330434125
-9.78280003051811e-05
9.782800030517979e-05
0.00042300276188296266
0.0008639176928358884
0.001271764003967345
0.001500488624399175
0.0014619085679407943
0.0011505123979552907
0.0007399103685053779
0.0003293083390554659
5.373650720988717e-05
-6.475938048371164e-05
-0.00011160659189746003
-0.00012538518348973897
-0.0001336523384451063
-0.00015294236667429682
-0.00016672095826657574
-0.00017498811322194308
-0.00018049954985885472
-0.00018601098649576628
-0.00018876670481422206
-0.00018876670481422206
-0.00018325526817731047
-0.00018601098649576628
-0.00018325526817731047
-0.00017498811322194308
-0.00017223239490348733
-0.00017223239490348733
-0.0001777438315403989
-0.00017498811322194308
-0.00016947667658503157
-0.00016396523994811996
-0.0001612095216296642
-0.0001612095216296642
-0.0001584538033112084
-0.0001584538033112084
-0.00015569808499275262
-0.00015569808499275262
-0.00015569808499275262
-0.00015294236667429682
-0.000150186648355841
-0.00014467521171892948
-0.00014743093003738526
-0.00014467521171892948
-0.00014191949340047367
-0.0001391637750820179
-0.0001391637750820179
-0.0001336523384451063
-0.0001336523384451063
-0.0001364080567635621
-0.0001364080567635621
-0.0001336523384451063
-0.00012814090180819475
-0.00012814090180819475
-0.00013089662012665053
-0.00013089662012665053
-0.00012814090180819475
-0.0001226294651712832
-0.0001198737468528274
-0.0001171180285343716
-0.00011160659189746003
-0.00010058371862363688
-8.956084534981374e-05
-8.404940871290214e-05
-8.680512703135793e-05
-8.956084534981374e-05
-9.231656366826955e-05
-9.231656366826955e-05
-9.231656366826955e-05
-0.00010058371862363688
-0.00010609515526054846
-0.00010885087357900426
-0.00010058371862363688
-0.00010058371862363688
-0.00010609515526054846
-0.00010609515526054846
-0.00010609515526054846
-0.00010609515526054846
-0.00010333943694209268
-0.00010058371862363688
-0.00010609515526054846
-0.00010885087357900426
-0.00010609515526054846
-9.507228198672531e-05
-8.956084534981374e-05
-9.231656366826955e-05
-9.231656366826955e-05
-8.680512703135793e-05
-8.404940871290214e-05
-8.956084534981374e-05
-9.231656366826955e-05
-8.956084534981374e-05
-8.404940871290214e-05
-7.57822537575348e-05
-7.57822537575348e-05
-7.85379720759906e-05
-7.85379720759906e-05
-7.85379720759906e-05
-7.85379720759906e-05
-8.129369039444639e-05
-7.57822537575348e-05
-6.200366216525588e-05
-4.8225070572976926e-05
-3.4446478980697995e-05
-3.4446478980697995e-05
-3.995791561760957e-05
-4.8225070572976926e-05
-5.098078889143272e-05
-4.2713633936065354e-05
-4.8225070572976926e-05
-5.6492225528344285e-05
-7.302653543907902e-05
-8.956084534981374e-05
-9.78280003051811e-05
-0.00010058371862363688
-0.00010609515526054846
-0.00011436231021591582
-0.0001198737468528274
-0.0001198737468528274
-0.0001198737468528274
-0.0001226294651712832
-0.00012814090180819475
-0.00013089662012665053
-0.00012814090180819475
-0.0001226294651712832
-0.00012814090180819475
-0.0001336523384451063
-0.0001391637750820179
-0.0001612095216296642
-0.00021356816968032413
-0.00023010247959105888
-0.00014467521171892948
2.8935042343785094e-05
0.0003293083390554659
0.0007702232700083917
0.001224916792553597
0.0015087557793545424
0.0015556029907682909
0.001293809750514991
0.0008832077210650791
0.0004478042267490647
0.00012262946517128183
-3.720219729915378e-05
-0.00010333943694209268
-0.0001198737468528274
-0.00012538518348973897
-0.00014743093003738526
-0.00018325526817731047
-0.00018325526817731047
-0.00018325526817731047
-0.00018876670481422206
-0.00019427814145113364
-0.00019427814145113364
-0.00018876670481422206
-0.00018325526817731047
-0.00018601098649576628
-0.00018601098649576628
-0.00018601098649576628
-0.00018049954985885472
-0.00017498811322194308
-0.00017223239490348733
-0.00017498811322194308
-0.00017223239490348733
-0.00016947667658503157
-0.00016396523994811996
-0.0001612095216296642
-0.00016672095826657574
-0.00016672095826657574
-0.0001612095216296642
-0.00015294236667429682
-0.00014467521171892948
-0.00014743093003738526
-0.00014743093003738526
-0.00014743093003738526
-0.0001391637750820179
-0.0001364080567635621
-0.0001391637750820179
-0.00014191949340047367
-0.00014191949340047367
-0.0001364080567635621
-0.00013089662012665053
-0.0001336523384451063
-0.0001364080567635621
-0.0001336523384451063
-0.00013089662012665053
-0.00012814090180819475
-0.00012814090180819475
-0.00013089662012665053
-0.00013089662012665053
-0.00012538518348973897
-0.00011160659189746003
-0.00010333943694209268
-0.00010058371862363688
-9.507228198672531e-05
-8.956084534981374e-05
-8.129369039444639e-05
-8.129369039444639e-05
-8.404940871290214e-05
-8.956084534981374e-05
-9.231656366826955e-05
-9.231656366826955e-05
-9.507228198672531e-05
-9.507228198672531e-05
-0.00010333943694209268
-0.00010609515526054846
-0.00010058371862363688
-9.507228198672531e-05
-9.78280003051811e-05
-0.00010058371862363688
-9.231656366826955e-05
-8.404940871290214e-05
-8.404940871290214e-05
-8.680512703135793e-05
-8.680512703135793e-05
-8.129369039444639e-05
-7.85379720759906e-05
-7.57822537575348e-05
-7.85379720759906e-05
-7.85379720759906e-05
-7.85379720759906e-05
-7.302653543907902e-05
-6.751509880216745e-05
-6.751509880216745e-05
-6.751509880216745e-05
-6.751509880216745e-05
-6.751509880216745e-05
-5.9247943846800084e-05
-5.9247943846800084e-05
-6.475938048371164e-05
-6.751509880216745e-05
-6.200366216525588e-05
-5.098078889143272e-05
-3.995791561760957e-05
-2.8935042343786426e-05
-2.066788738841907e-05
-1.240073243305171e-05
-1.5156450751507488e-05
-2.066788738841907e-05
-2.342360570687485e-05
-2.6179324025330647e-05
-3.169076066224221e-05
-3.995791561760957e-05
-5.098078889143272e-05
-7.302653543907902e-05
-8.956084534981374e-05
-8.956084534981374e-05
-8.680512703135793e-05
-9.231656366826955e-05
-0.00010333943694209268
-0.00010885087357900426
-0.00010609515526054846
-0.00010609515526054846
-0.00010609515526054846
-0.00010609515526054846
-0.00010885087357900426
-0.00010885087357900426
-0.00011160659189746003
-0.00011436231021591582
-0.0001226294651712832
-0.00016947667658503157
-0.00022459104295414727
-0.0001997895780880452
-7.302653543907902e-05
0.00014743093003738393
0.0005194529030289152
0.0010099707637140451
0.0014288399481193247
0.0016465416952773319
0.0015693815823605698
0.0012138939192797731
0.0007702232700083917
7.853797207598924e-05
-3.720219729915378e-05
-8.404940871290214e-05
-0.00010058371862363688
-0.0001198737468528274
-0.00014191949340047367
-0.0001584538033112084
-0.00016947667658503157
-0.00017498811322194308
-0.00017498811322194308
-0.00016947667658503157
-0.00016947667658503157
-0.00016672095826657574
-0.00016947667658503157
-0.00016947667658503157
-0.00016672095826657574
-0.0001612095216296642
-0.0001612095216296642
-0.00016396523994811996
-0.00016396523994811996
-0.00015569808499275262
-0.000150186648355841
-0.000150186648355841
-0.000150186648355841
-0.000150186648355841
-0.00014743093003738526
-0.0001391637750820179
-0.0001364080567635621
-0.00014191949340047367
-0.00014191949340047367
-0.0001391637750820179
-0.00013089662012665053
-0.00012814090180819475
-0.00013089662012665053
-0.00012814090180819475
-0.0001226294651712832
-0.0001198737468528274
-0.00011436231021591582
-0.00010885087357900426
-0.00011160659189746003
-0.00011436231021591582
-0.00011160659189746003
-0.00010609515526054846
-0.00010885087357900426
-0.00011436231021591582
-0.0001171180285343716
-0.0001171180285343716
-0.00011160659189746003
-0.00010885087357900426
-0.00011160659189746003
-0.00010609515526054846
-9.78280003051811e-05
-8.680512703135793e-05
-7.85379720759906e-05
-7.57822537575348e-05
-7.85379720759906e-05
-7.57822537575348e-05
-7.302653543907902e-05
-7.302653543907902e-05
-7.302653543907902e-05
-7.85379720759906e-05
-8.129369039444639e-05
-8.129369039444639e-05
-8.404940871290214e-05
-8.680512703135793e-05
-8.404940871290214e-05
-8.129369039444639e-05
-7.85379720759906e-05
-7.85379720759906e-05
-8.129369039444639e-05
-7.85379720759906e-05
-7.027081712062322e-05
-6.751509880216745e-05
-6.751509880216745e-05
-7.027081712062322e-05
-7.027081712062322e-05
-6.475938048371164e-05
-5.6492225528344285e-05
-5.6492225528344285e-05
-5.6492225528344285e-05
-5.3736507209888505e-05
-5.098078889143272e-05
-4.5469352254521147e-05
-4.5469352254521147e-05
-4.8225070572976926e-05
-4.8225070572976926e-05
-4.8225070572976926e-05
-4.8225070572976926e-05
-4.5469352254521147e-05
-3.720219729915378e-05
-2.8935042343786426e-05
-2.066788738841907e-05
-4.133577477684346e-06
1.3778591592272275e-06
-1.377859159228559e-06
-6.889295796140132e-06
-9.64501411459592e-06
-9.64501411459592e-06
-1.240073243305171e-05
-2.342360570687485e-05
-4.2713633936065354e-05
-6.200366216525588e-05
-7.302653543907902e-05
-7.302653543907902e-05
-7.302653543907902e-05
-8.129369039444639e-05
-9.231656366826955e-05
-9.231656366826955e-05
-8.956084534981374e-05
-9.231656366826955e-05
-0.00010058371862363688
-0.00010609515526054846
-0.00010333943694209268
-9.78280003051811e-05
-0.00010058371862363688
-0.00010885087357900426
-0.0001226294651712832
-0.00016947667658503157
-0.00022734676127260308
-0.00020530101472495681
-8.129369039444639e-05
0.00014191949340047234
0.0005194529030289152
0.0010265050736247801
0.0016989003433279916
0.0016244959487296858
0.001271764003967345
0.0008198261997405958
0.0003733998321507585
0.00010058371862363556
-2.342360570687485e-05
-7.85379720759906e-05
-9.507228198672531e-05
-0.00010609515526054846
-0.00013089662012665053
-0.00015294236667429682
-0.00016396523994811996
-0.00016672095826657574
-0.00016396523994811996
-0.00015569808499275262
-0.00015569808499275262
-0.0001612095216296642
-0.0001612095216296642
-0.0001584538033112084
-0.0001584538033112084
-0.00015569808499275262
-0.00015569808499275262
-0.00015569808499275262
-0.00015294236667429682
-0.000150186648355841
-0.00014467521171892948
-0.00014743093003738526
-0.00014467521171892948
-0.0001391637750820179
-0.0001336523384451063
-0.00012814090180819475
-0.00013089662012665053
-0.0001336523384451063
-0.00013089662012665053
-0.00012538518348973897
-0.0001226294651712832
-0.0001226294651712832
-0.0001226294651712832
-0.0001171180285343716
-0.00010885087357900426
-0.00010609515526054846
-0.00010609515526054846
-0.00010609515526054846
-0.00010609515526054846
-0.00010058371862363688
-9.231656366826955e-05
-9.507228198672531e-05
-9.78280003051811e-05
-0.00010058371862363688
-0.00010609515526054846
-0.00010333943694209268
-0.00010609515526054846
-0.00010885087357900426
-0.00010609515526054846
-0.00010333943694209268
-9.231656366826955e-05
-8.680512703135793e-05
-8.129369039444639e-05
-7.57822537575348e-05
-7.027081712062322e-05
-6.751509880216745e-05
-7.302653543907902e-05
-7.85379720759906e-05
-7.85379720759906e-05
-7.57822537575348e-05
-7.85379720759906e-05
-8.404940871290214e-05
-8.680512703135793e-05
-8.129369039444639e-05
-7.85379720759906e-05
-7.302653543907902e-05
-7.302653543907902e-05
-7.57822537575348e-05
-7.302653543907902e-05
-6.751509880216745e-05
-6.200366216525588e-05
-6.200366216525588e-05
-6.200366216525588e-05
-5.9247943846800084e-05
-5.3736507209888505e-05
-4.8225070572976926e-05
-4.5469352254521147e-05
-3.995791561760957e-05
-3.995791561760957e-05
-3.995791561760957e-05
-3.4446478980697995e-05
-3.169076066224221e-05
-3.169076066224221e-05
-3.4446478980697995e-05
-3.4446478980697995e-05
-3.4446478980697995e-05
-2.8935042343786426e-05
-1.5156450751507488e-05
-6.889295796140132e-06
1.3778591592272275e-06
1.7912169069961946e-05
2.6179324025329308e-05
1.7912169069961946e-05
1.2400732433050376e-05
1.2400732433050376e-05
1.2400732433050376e-05
6.8892957961388014e-06
-1.377859159228559e-06
-2.066788738841907e-05
-4.2713633936065354e-05
-5.3736507209888505e-05
-5.098078889143272e-05
-5.3736507209888505e-05
-5.9247943846800084e-05
-7.027081712062322e-05
-7.57822537575348e-05
-7.302653543907902e-05
-7.027081712062322e-05
-7.57822537575348e-05
-8.129369039444639e-05
-7.85379720759906e-05
-7.57822537575348e-05
-7.85379720759906e-05
-8.680512703135793e-05
-0.00010609515526054846
-0.00015569808499275262
-0.0002080567330434125
-0.00016396523994811996
-2.6179324025330647e-05
0.0006186587624933234
0.0011201994964522765
0.0015115114976729984
0.0016796103150988014
0.0015390686808575565
0.0011615352712291134
0.0007123531853208202
0.00030450687418936376
7.02708171206219e-05
-3.720219729915378e-05
-7.57822537575348e-05
-8.129369039444639e-05
-8.956084534981374e-05
-0.00011160659189746003
-0.00013089662012665053
-0.00014191949340047367
-0.00014743093003738526
-0.00014467521171892948
-0.00014191949340047367
-0.0001391637750820179
-0.00014191949340047367
-0.0001391637750820179
-0.00013089662012665053
-0.00012814090180819475
-0.00012814090180819475
-0.0001336523384451063
-0.00013089662012665053
-0.00012538518348973897
-0.0001226294651712832
-0.0001171180285343716
-0.0001171180285343716
-0.0001198737468528274
-0.00011436231021591582
-0.00010609515526054846
-0.00010333943694209268
-0.00010609515526054846
-0.00010885087357900426
-0.00010609515526054846
-9.78280003051811e-05
-9.231656366826955e-05
-8.680512703135793e-05
-8.404940871290214e-05
-8.404940871290214e-05
-7.85379720759906e-05
-7.302653543907902e-05
-7.027081712062322e-05
-7.027081712062322e-05
-6.751509880216745e-05
-6.475938048371164e-05
-6.475938048371164e-05
-6.751509880216745e-05
-7.302653543907902e-05
-7.302653543907902e-05
-7.302653543907902e-05
-7.302653543907902e-05
-7.57822537575348e-05
-7.57822537575348e-05
-7.302653543907902e-05
-7.027081712062322e-05
-6.475938048371164e-05
-5.6492225528344285e-05
-5.098078889143272e-05
-4.8225070572976926e-05
-4.2713633936065354e-05
-3.995791561760957e-05
-3.995791561760957e-05
-4.2713633936065354e-05
-4.8225070572976926e-05
-5.098078889143272e-05
-5.098078889143272e-05
-5.6492225528344285e-05
-5.6492225528344285e-05
-5.3736507209888505e-05
-5.098078889143272e-05
-4.5469352254521147e-05
-4.2713633936065354e-05
-4.5469352254521147e-05
-4.5469352254521147e-05
-4.2713633936065354e-05
-3.720219729915378e-05
-3.4446478980697995e-05
-3.4446478980697995e-05
-3.4446478980697995e-05
-3.169076066224221e-05
-2.342360570687485e-05
-1.7912169069963278e-05
-1.5156450751507488e-05
-1.240073243305171e-05
-9.64501411459592e-06
-4.133577477684346e-06
-1.377859159228559e-06
-1.377859159228559e-06
-4.133577477684346e-06
-4.133577477684346e-06
4.133577477683014e-06
1.2400732433050376e-05
2.066788738841773e-05
2.8935042343785094e-05
3.720219729915245e-05
4.271363393606403e-05
3.9957915617608246e-05
3.9957915617608246e-05
3.444647898069667e-05
3.444647898069667e-05
3.169076066224089e-05
1.7912169069961946e-05
1.3778591592272275e-06
-1.7912169069963278e-05
-3.169076066224221e-05
-3.169076066224221e-05
-3.169076066224221e-05
-3.4446478980697995e-05
-4.5469352254521147e-05
-5.098078889143272e-05
-5.098078889143272e-05
-4.8225070572976926e-05
-5.098078889143272e-05
-5.3736507209888505e-05
-5.6492225528344285e-05
-5.9247943846800084e-05
-6.200366216525588e-05
-6.475938048371164e-05
-8.129369039444639e-05
-0.00013089662012665053
-0.0001226294651712832
9.64501411459459e-06
0.00025214822613870384
0.000637948790722514
0.0010953980315861747
0.0014315956664377805
0.001558358709086747
0.0013847484550240322
0.0010237493553063243
0.0006159030441748677
0.00024388107118333642
4.271363393606403e-05
-4.2713633936065354e-05
-6.751509880216745e-05
-7.027081712062322e-05
-7.85379720759906e-05
-8.956084534981374e-05
-9.78280003051811e-05
-0.00010609515526054846
-0.00011160659189746003
-0.00011160659189746003
-0.00010885087357900426
-0.00010333943694209268
-0.00010609515526054846
-0.00010885087357900426
-0.00010609515526054846
-0.00010333943694209268
-0.00010058371862363688
-9.78280003051811e-05
-0.00010058371862363688
-9.78280003051811e-05
-9.507228198672531e-05
-8.956084534981374e-05
-8.956084534981374e-05
-8.956084534981374e-05
-9.231656366826955e-05
-8.680512703135793e-05
-8.129369039444639e-05
-7.85379720759906e-05
-7.85379720759906e-05
-8.129369039444639e-05
-7.57822537575348e-05
-7.302653543907902e-05
-7.027081712062322e-05
-7.027081712062322e-05
-7.027081712062322e-05
-6.475938048371164e-05
-5.6492225528344285e-05
-5.3736507209888505e-05
-5.3736507209888505e-05
-5.6492225528344285e-05
-5.098078889143272e-05
-4.8225070572976926e-05
-4.2713633936065354e-05
-4.5469352254521147e-05
-5.098078889143272e-05
-5.3736507209888505e-05
-5.6492225528344285e-05
-5.9247943846800084e-05
-5.6492225528344285e-05
-5.9247943846800084e-05
-5.6492225528344285e-05
-3.720219729915378e-05
-3.4446478980697995e-05
-3.4446478980697995e-05
-3.4446478980697995e-05
-2.8935042343786426e-05
-2.6179324025330647e-05
-2.8935042343786426e-05
-2.8935042343786426e-05
-3.169076066224221e-05
-3.169076066224221e-05
-3.4446478980697995e-05
-3.4446478980697995e-05
-3.720219729915378e-05
-3.995791561760957e-05
-3.995791561760957e-05
-3.4446478980697995e-05
-3.4446478980697995e-05
-3.720219729915378e-05
-3.720219729915378e-05
-3.4446478980697995e-05
-2.8935042343786426e-05
-2.342360570687485e-05
-2.342360570687485e-05
-2.6179324025330647e-05
-1.7912169069963278e-05
-1.240073243305171e-05
-6.889295796140132e-06
-4.133577477684346e-06
-4.133577477684346e-06
-1.377859159228559e-06
1.3778591592272275e-06
9.64501411459459e-06
1.2400732433050376e-05
1.2400732433050376e-05
1.5156450751506162e-05
2.8935042343785094e-05
4.271363393606403e-05
5.098078889143139e-05
4.82250705729756e-05
4.546935225451981e-05
4.271363393606403e-05
4.271363393606403e-05
4.271363393606403e-05
3.169076066224089e-05
1.7912169069961946e-05
6.8892957961388014e-06
-6.889295796140132e-06
-1.5156450751507488e-05
-2.066788738841907e-05
-2.6179324025330647e-05
-3.4446478980697995e-05
-3.995791561760957e-05
-3.720219729915378e-05
-3.995791561760957e-05
-5.098078889143272e-05
-5.098078889143272e-05
-5.098078889143272e-05
-4.5469352254521147e-05
-4.8225070572976926e-05
-5.9247943846800084e-05
-6.751509880216745e-05
-7.85379720759906e-05
-0.00016672095826657574
-0.0001391637750820179
-2.6179324025330647e-05
0.0001832552681773092
0.0005332314946211942
0.0009769021438925758
0.0013268783703364606
0.0014756871595330732
0.0013571912718394743
0.0010237493553063243
0.000637948790722514
0.0002576596627756154
3.169076066224089e-05
-6.200366216525588e-05
-8.129369039444639e-05
-6.751509880216745e-05
-7.57822537575348e-05
-0.00010058371862363688
-0.00011160659189746003
-0.00011436231021591582
-0.0001171180285343716
-0.0001198737468528274
-0.0001198737468528274
-0.00012538518348973897
-0.0001198737468528274
-0.00011160659189746003
-0.00010885087357900426
-0.00011160659189746003
-0.0001198737468528274
-0.0001198737468528274
-0.00011160659189746003
-0.00010885087357900426
-0.00010609515526054846
-0.00010885087357900426
-0.00011160659189746003
-0.00010885087357900426
-0.00010885087357900426
-0.00010885087357900426
-0.00010885087357900426
-0.00011160659189746003
-0.00010333943694209268
-9.78280003051811e-05
-9.507228198672531e-05
-9.78280003051811e-05
-9.78280003051811e-05
-9.78280003051811e-05
-9.231656366826955e-05
-8.680512703135793e-05
-9.507228198672531e-05
-9.507228198672531e-05
-8.956084534981374e-05
-8.680512703135793e-05
-8.680512703135793e-05
-8.680512703135793e-05
-9.231656366826955e-05
-9.231656366826955e-05
-9.231656366826955e-05
-9.231656366826955e-05
-9.78280003051811e-05
-0.00010333943694209268
-9.78280003051811e-05
-8.680512703135793e-05
-7.85379720759906e-05
-7.85379720759906e-05
-7.57822537575348e-05
-6.200366216525588e-05
-4.8225070572976926e-05
-5.098078889143272e-05
-5.9247943846800084e-05
-6.200366216525588e-05
-6.751509880216745e-05
-6.751509880216745e-05
-6.200366216525588e-05
-6.751509880216745e-05
-7.57822537575348e-05
-7.57822537575348e-05
-6.751509880216745e-05
-6.751509880216745e-05
-7.027081712062322e-05
-7.57822537575348e-05
-7.302653543907902e-05
-7.57822537575348e-05
-7.302653543907902e-05
-7.302653543907902e-05
-7.027081712062322e-05
-6.751509880216745e-05
-6.751509880216745e-05
-6.200366216525588e-05
-5.3736507209888505e-05
-5.9247943846800084e-05
-6.200366216525588e-05
-5.098078889143272e-05
-3.995791561760957e-05
-3.720219729915378e-05
-3.720219729915378e-05
-3.4446478980697995e-05
-2.8935042343786426e-05
-2.342360570687485e-05
-2.342360570687485e-05
-2.342360570687485e-05
-1.240073243305171e-05
-1.377859159228559e-06
9.64501411459459e-06
1.7912169069961946e-05
1.2400732433050376e-05
1.3778591592272275e-06
-1.377859159228559e-06
1.3778591592272275e-06
-1.377859159228559e-06
-9.64501411459592e-06
-2.8935042343786426e-05
-5.3736507209888505e-05
-6.751509880216745e-05
-6.751509880216745e-05
-7.57822537575348e-05
-8.956084534981374e-05
-9.507228198672531e-05
-9.507228198672531e-05
-9.231656366826955e-05
-9.507228198672531e-05
-0.00010333943694209268
-0.00010609515526054846
-0.00010058371862363688
-9.231656366826955e-05
-0.00010885087357900426
-0.0001171180285343716
-0.000150186648355841
-0.00020254529640650095
-0.00018325526817731047
-7.027081712062322e-05
0.00012814090180819342
0.0004615828183413437
0.000908009185931181
0.0012993211871519031
0.0015032443427176307
0.0014343513847562366
0.001103665186541542
0.0006958188754100854
0.0002989954375524522
4.546935225451981e-05
-7.302653543907902e-05
-0.00011160659189746003
-0.00011160659189746003
-0.0001171180285343716
-0.0001391637750820179
-0.0001584538033112084
-0.00016947667658503157
-0.00017223239490348733
-0.00017223239490348733
-0.00017223239490348733
-0.00017498811322194308
-0.00017223239490348733
-0.00016672095826657574
-0.00016396523994811996
-0.0001612095216296642
-0.00016396523994811996
-0.00016947667658503157
-0.00016672095826657574
-0.0001612095216296642
-0.00015569808499275262
-0.0001584538033112084
-0.0001584538033112084
-0.00015569808499275262
-0.000150186648355841
-0.00014467521171892948
-0.00014467521171892948
-0.000150186648355841
-0.00014743093003738526
-0.00014191949340047367
-0.00014191949340047367
-0.00014191949340047367
-0.00014191949340047367
-0.00014191949340047367
-0.00014191949340047367
-0.0001364080567635621
-0.0001364080567635621
-0.0001391637750820179
-0.0001391637750820179
-0.0001336523384451063
-0.00013089662012665053
-0.00012814090180819475
-0.0001336523384451063
-0.0001364080567635621
-0.0001364080567635621
-0.0001336523384451063
-0.0001336523384451063
-0.00013089662012665053
-0.00012814090180819475
-0.0001198737468528274
-0.00010885087357900426
-0.00010058371862363688
-9.78280003051811e-05
-9.507228198672531e-05
-8.956084534981374e-05
-8.404940871290214e-05
-8.404940871290214e-05
-8.680512703135793e-05
-8.956084534981374e-05
-8.680512703135793e-05
-8.404940871290214e-05
-8.956084534981374e-05
-9.231656366826955e-05
-9.507228198672531e-05
-9.78280003051811e-05
-9.507228198672531e-05
-8.956084534981374e-05
-8.956084534981374e-05
-9.507228198672531e-05
-9.231656366826955e-05
-8.404940871290214e-05
-8.129369039444639e-05
-8.129369039444639e-05
-8.404940871290214e-05
-8.404940871290214e-05
-8.129369039444639e-05
-7.85379720759906e-05
-7.85379720759906e-05
-8.129369039444639e-05
-8.129369039444639e-05
-7.302653543907902e-05
-6.200366216525588e-05
-5.9247943846800084e-05
-5.9247943846800084e-05
-5.9247943846800084e-05
-5.9247943846800084e-05
-5.9247943846800084e-05
-5.9247943846800084e-05
-5.9247943846800084e-05
-4.8225070572976926e-05
-3.4446478980697995e-05
-2.342360570687485e-05
-1.5156450751507488e-05
-1.5156450751507488e-05
-2.342360570687485e-05
-2.8935042343786426e-05
-2.6179324025330647e-05
-2.342360570687485e-05
-3.169076066224221e-05
-4.5469352254521147e-05
-5.6492225528344285e-05
-6.751509880216745e-05
-7.85379720759906e-05
-8.404940871290214e-05
-8.956084534981374e-05
-9.78280003051811e-05
-0.00010333943694209268
-0.00010333943694209268
-0.00010609515526054846
-0.00011436231021591582
-0.00011436231021591582
-0.00011160659189746003
-0.0001171180285343716
-0.0001226294651712832
-0.00012814090180819475
-0.00014467521171892948
-0.00019427814145113364
-0.0002218353246356915
-0.000150186648355841
4.133577477683014e-06
0.0002686825360494386
0.000679284565499351
0.0011422452429999228
0.0014591528496223384
0.0015473358358129234
0.001332389806973372
0.0009355663691157388
0.0005056743114366363
0.00015845380331120705
-2.342360570687485e-05
-0.00010058371862363688
-0.00012538518348973897
-0.0001226294651712832
-0.0001391637750820179
-0.0001612095216296642
-0.00017223239490348733
-0.00017498811322194308
-0.0001777438315403989
-0.0001777438315403989
-0.00018325526817731047
-0.00018325526817731047
-0.00018325526817731047
-0.00018049954985885472
-0.0001777438315403989
-0.0001777438315403989
-0.0001777438315403989
-0.00017498811322194308
-0.00016672095826657574
-0.00016672095826657574
-0.00016947667658503157
-0.00016947667658503157
-0.00016947667658503157
-0.00016396523994811996
-0.0001612095216296642
-0.0001612095216296642
-0.0001584538033112084
-0.00015569808499275262
-0.00015294236667429682
-0.00014743093003738526
-0.00014743093003738526
-0.00014743093003738526
-0.00014743093003738526
-0.00014743093003738526
-0.00014467521171892948
-0.00014191949340047367
-0.00014467521171892948
-0.00014467521171892948
-0.00014467521171892948
-0.00014191949340047367
-0.00014191949340047367
-0.00014191949340047367
-0.00014467521171892948
-0.00014191949340047367
-0.0001391637750820179
-0.00014467521171892948
-0.00014467521171892948
-0.0001364080567635621
-0.0001226294651712832
-0.00011436231021591582
-0.00010609515526054846
-0.00010058371862363688
-9.507228198672531e-05
-8.956084534981374e-05
-8.129369039444639e-05
-8.404940871290214e-05
-8.680512703135793e-05
-9.231656366826955e-05
-9.231656366826955e-05
-9.231656366826955e-05
-9.231656366826955e-05
-9.78280003051811e-05
-0.00010058371862363688
-9.78280003051811e-05
-9.507228198672531e-05
-9.231656366826955e-05
-8.956084534981374e-05
-8.956084534981374e-05
-8.680512703135793e-05
-7.85379720759906e-05
-7.302653543907902e-05
-7.57822537575348e-05
-7.57822537575348e-05
-7.302653543907902e-05
-7.302653543907902e-05
-6.751509880216745e-05
-6.751509880216745e-05
-7.302653543907902e-05
-6.751509880216745e-05
-5.9247943846800084e-05
-5.3736507209888505e-05
-5.3736507209888505e-05
-5.6492225528344285e-05
-5.6492225528344285e-05
-5.3736507209888505e-05
-5.098078889143272e-05
-5.3736507209888505e-05
-5.3736507209888505e-05
-5.3736507209888505e-05
-4.2713633936065354e-05
-2.6179324025330647e-05
-1.240073243305171e-05
-6.889295796140132e-06
-1.240073243305171e-05
-1.7912169069963278e-05
-1.7912169069963278e-05
-1.240073243305171e-05
-1.5156450751507488e-05
-2.8935042343786426e-05
-3.995791561760957e-05
-5.3736507209888505e-05
-6.751509880216745e-05
-7.57822537575348e-05
-8.404940871290214e-05
-8.680512703135793e-05
-9.231656366826955e-05
-9.231656366826955e-05
-9.78280003051811e-05
-0.00010058371862363688
-0.00010058371862363688
-9.78280003051811e-05
-9.507228198672531e-05
-0.00010333943694209268
-0.00011160659189746003
-0.00011436231021591582
-0.00014191949340047367
-0.00020254529640650095
-0.0002108124513618684
-0.00011436231021591582
7.578225375753347e-05
0.00040371273365377215
0.0008666734111543443
0.001318611215381093
0.0015859158922713046
0.001602450202182039
0.0013103440604257258
0.0008859634393835348
0.0004395370717936973
0.00011987374685282605
-2.342360570687485e-05
-8.680512703135793e-05
-0.00010333943694209268
-0.00011160659189746003
-0.0001364080567635621
-0.00015294236667429682
-0.0001612095216296642
-0.00016396523994811996
-0.00016396523994811996
-0.00016396523994811996
-0.00016947667658503157
-0.00016672095826657574
-0.00016396523994811996
-0.00016396523994811996
-0.00016672095826657574
-0.00016396523994811996
-0.0001612095216296642
-0.00015569808499275262
-0.000150186648355841
-0.000150186648355841
-0.00015294236667429682
-0.00015294236667429682
-0.00014467521171892948
-0.00014191949340047367
-0.00014191949340047367
-0.00014191949340047367
-0.00014467521171892948
-0.0001391637750820179
-0.0001336523384451063
-0.0001336523384451063
-0.0001364080567635621
-0.0001336523384451063
-0.00012814090180819475
-0.0001226294651712832
-0.00012538518348973897
-0.00012538518348973897
-0.00012538518348973897
-0.0001226294651712832
-0.0001171180285343716
-0.0001226294651712832
-0.0001226294651712832
-0.0001226294651712832
-0.0001198737468528274
-0.0001171180285343716
-0.0001226294651712832
-0.00012538518348973897
-0.0001226294651712832
-0.00011436231021591582
-0.00010058371862363688
-9.507228198672531e-05
-9.231656366826955e-05
-8.129369039444639e-05
-7.302653543907902e-05
-6.751509880216745e-05
-6.475938048371164e-05
-7.027081712062322e-05
-7.302653543907902e-05
-7.302653543907902e-05
-6.751509880216745e-05
-7.302653543907902e-05
-8.129369039444639e-05
-8.404940871290214e-05
-8.129369039444639e-05
-7.85379720759906e-05
-7.57822537575348e-05
-7.57822537575348e-05
-7.57822537575348e-05
-7.302653543907902e-05
-6.475938048371164e-05
-5.9247943846800084e-05
-6.200366216525588e-05
-6.200366216525588e-05
-5.9247943846800084e-05
-5.3736507209888505e-05
-4.5469352254521147e-05
-4.5469352254521147e-05
-4.8225070572976926e-05
-4.5469352254521147e-05
-3.995791561760957e-05
-3.4446478980697995e-05
-3.169076066224221e-05
-3.4446478980697995e-05
-3.4446478980697995e-05
-2.8935042343786426e-05
-2.342360570687485e-05
-2.342360570687485e-05
-3.169076066224221e-05
-3.4446478980697995e-05
-2.8935042343786426e-05
-1.5156450751507488e-05
1.3778591592272275e-06
6.8892957961388014e-06
1.2400732433050376e-05
1.2400732433050376e-05
9.64501411459459e-06
9.64501411459459e-06
4.133577477683014e-06
1.3778591592272275e-06
-4.133577477684346e-06
-1.240073243305171e-05
-4.2713633936065354e-05
-5.6492225528344285e-05
-5.3736507209888505e-05
-5.6492225528344285e-05
-6.475938048371164e-05
-6.751509880216745e-05
-7.57822537575348e-05
-8.129369039444639e-05
-7.85379720759906e-05
-7.302653543907902e-05
-7.027081712062322e-05
-7.302653543907902e-05
-8.129369039444639e-05
-8.680512703135793e-05
-8.956084534981374e-05
-0.00011436231021591582
-0.0001777438315403989
-0.00020254529640650095
-0.00011160659189746003
7.578225375753347e-05
0.000392689860379949
0.000855650537880521
0.001335145525291828
0.0016437859769588762
0.001696144625009536
0.0014288399481193247
0.0010017036087586776
0.0005332314946211942
0.0001832552681773092
1.5156450751506162e-05
-4.8225070572976926e-05
-6.751509880216745e-05
-8.129369039444639e-05
-0.00010058371862363688
-0.0001171180285343716
-0.00012538518348973897
-0.0001336523384451063
-0.00014191949340047367
-0.00014467521171892948
-0.0001391637750820179
-0.0001364080567635621
-0.0001391637750820179
-0.0001364080567635621
-0.0001364080567635621
-0.0001336523384451063
-0.00012814090180819475
-0.00012538518348973897
-0.00012538518348973897
-0.00012538518348973897
-0.00012538518348973897
-0.0001198737468528274
-0.0001171180285343716
-0.0001171180285343716
-0.0001171180285343716
-0.00011436231021591582
-0.00011160659189746003
-0.00010333943694209268
-0.00010058371862363688
-0.00010058371862363688
-0.00010058371862363688
-0.00010058371862363688
-9.507228198672531e-05
-9.231656366826955e-05
-9.507228198672531e-05
-8.956084534981374e-05
-8.404940871290214e-05
-8.129369039444639e-05
-8.129369039444639e-05
-8.404940871290214e-05
-8.680512703135793e-05
-8.404940871290214e-05
-8.680512703135793e-05
-9.231656366826955e-05
-9.507228198672531e-05
-9.78280003051811e-05
-9.78280003051811e-05
-9.231656366826955e-05
-8.680512703135793e-05
-7.85379720759906e-05
-7.027081712062322e-05
-5.9247943846800084e-05
-4.5469352254521147e-05
-4.2713633936065354e-05
-4.2713633936065354e-05
-4.5469352254521147e-05
-3.995791561760957e-05
-3.720219729915378e-05
-4.2713633936065354e-05
-5.3736507209888505e-05
-5.9247943846800084e-05
-5.9247943846800084e-05
-5.3736507209888505e-05
-5.3736507209888505e-05
-5.3736507209888505e-05
-5.6492225528344285e-05
-5.6492225528344285e-05
-4.8225070572976926e-05
-4.2713633936065354e-05
-4.2713633936065354e-05
-4.2713633936065354e-05
-3.995791561760957e-05
-3.169076066224221e-05
-2.6179324025330647e-05
-2.6179324025330647e-05
-2.342360570687485e-05
-2.066788738841907e-05
-1.7912169069963278e-05
-1.5156450751507488e-05
-1.5156450751507488e-05
-1.5156450751507488e-05
-1.5156450751507488e-05
-9.64501411459592e-06
-4.133577477684346e-06
-4.133577477684346e-06
-9.64501411459592e-06
-1.240073243305171e-05
-1.240073243305171e-05
-1.377859159228559e-06
9.64501411459459e-06
1.7912169069961946e-05
2.3423605706873515e-05
3.169076066224089e-05
3.444647898069667e-05
3.169076066224089e-05
2.6179324025329308e-05
2.6179324025329308e-05
1.7912169069961946e-05
6.8892957961388014e-06
-9.64501411459592e-06
-3.169076066224221e-05
-3.995791561760957e-05
-3.4446478980697995e-05
-3.995791561760957e-05
-4.8225070572976926e-05
-5.6492225528344285e-05
-6.200366216525588e-05
-6.200366216525588e-05
-5.9247943846800084e-05
-5.9247943846800084e-05
-6.200366216525588e-05
-6.200366216525588e-05
-6.751509880216745e-05
-7.027081712062322e-05
-7.85379720759906e-05
-0.0001171180285343716
-0.00018601098649576628
-0.00018325526817731047
-6.751509880216745e-05
0.00014743093003738393
0.0005111857480735478
0.001007215045395589
0.0014756871595330732
0.0017429918364232845
0.0017181903715571825
0.0013875041733424878
0.0009300549324788276
0.0004615828183413437
0.00015018664835583973
1.2400732433050376e-05
-4.5469352254521147e-05
-5.9247943846800084e-05
-7.027081712062322e-05
-9.231656366826955e-05
-0.00011436231021591582
-0.0001226294651712832
-0.00013089662012665053
-0.0001364080567635621
-0.0001364080567635621
-0.0001336523384451063
-0.00012814090180819475
-0.00012538518348973897
-0.00012538518348973897
-0.00012814090180819475
-0.0001226294651712832
-0.0001198737468528274
-0.0001198737468528274
-0.00012538518348973897
-0.0001226294651712832
-0.0001171180285343716
-0.00011436231021591582
-0.00011436231021591582
-0.0001171180285343716
-0.00011160659189746003
-0.00010333943694209268
-9.507228198672531e-05
-9.507228198672531e-05
-9.507228198672531e-05
-9.231656366826955e-05
-8.404940871290214e-05
-8.129369039444639e-05
-8.404940871290214e-05
-8.404940871290214e-05
-8.129369039444639e-05
-7.57822537575348e-05
-7.027081712062322e-05
-7.57822537575348e-05
-7.57822537575348e-05
-7.57822537575348e-05
-6.751509880216745e-05
-6.200366216525588e-05
-7.027081712062322e-05
-7.57822537575348e-05
-7.57822537575348e-05
-7.57822537575348e-05
-7.85379720759906e-05
-7.85379720759906e-05
-8.129369039444639e-05
-7.302653543907902e-05
-5.6492225528344285e-05
-4.8225070572976926e-05
-3.995791561760957e-05
-3.720219729915378e-05
-3.169076066224221e-05
-2.8935042343786426e-05
-2.6179324025330647e-05
-2.8935042343786426e-05
-3.4446478980697995e-05
-3.720219729915378e-05
-3.720219729915378e-05
-3.720219729915378e-05
-3.995791561760957e-05
-4.2713633936065354e-05
-4.5469352254521147e-05
-3.995791561760957e-05
-3.4446478980697995e-05
-3.4446478980697995e-05
-3.4446478980697995e-05
-3.169076066224221e-05
-2.8935042343786426e-05
-2.066788738841907e-05
-1.5156450751507488e-05
-9.64501411459592e-06
-1.240073243305171e-05
-1.240073243305171e-05
-9.64501411459592e-06
-4.133577477684346e-06
-4.133577477684346e-06
-4.133577477684346e-06
1.3778591592272275e-06
6.8892957961388014e-06
6.8892957961388014e-06
9.64501411459459e-06
6.8892957961388014e-06
4.133577477683014e-06
6.8892957961388014e-06
6.8892957961388014e-06
9.64501411459459e-06
1.5156450751506162e-05
2.3423605706873515e-05
4.82250705729756e-05
5.373650720988717e-05
4.82250705729756e-05
3.9957915617608246e-05
3.720219729915245e-05
3.9957915617608246e-05
3.720219729915245e-05
2.6179324025329308e-05
6.8892957961388014e-06
-6.889295796140132e-06
-1.7912169069963278e-05
-2.066788738841907e-05
-2.6179324025330647e-05
-3.169076066224221e-05
-3.720219729915378e-05
-3.995791561760957e-05
-3.995791561760957e-05
-4.2713633936065354e-05
-4.8225070572976926e-05
-4.8225070572976926e-05
-4.5469352254521147e-05
-4.2713633936065354e-05
-4.5469352254521147e-05
-5.9247943846800084e-05
-8.404940871290214e-05
-0.0001364080567635621
-0.00016672095826657574
-0.00010058371862363688
5.098078889143139e-05
0.00032104118410009855
0.0007509332417792012
0.0012221610742351409
0.0015390686808575565
0.0016244959487296858
0.0014095499198901345
0.0010292607919432355
0.0006076358892195001
0.00024388107118333642
5.098078889143139e-05
-3.4446478980697995e-05
-5.6492225528344285e-05
-5.6492225528344285e-05
-7.027081712062322e-05
-8.680512703135793e-05
-0.00010333943694209268
-0.00011160659189746003
-0.00010885087357900426
-0.00010885087357900426
-0.00010885087357900426
-0.00010885087357900426
-0.00010885087357900426
-0.00010333943694209268
-9.78280003051811e-05
-9.507228198672531e-05
-9.78280003051811e-05
-9.78280003051811e-05
-9.507228198672531e-05
-9.507228198672531e-05
-8.956084534981374e-05
-8.956084534981374e-05
-9.231656366826955e-05
-8.956084534981374e-05
-8.129369039444639e-05
-8.129369039444639e-05
-8.129369039444639e-05
-7.85379720759906e-05
-7.57822537575348e-05
-7.57822537575348e-05
-7.302653543907902e-05
-7.57822537575348e-05
-7.302653543907902e-05
-6.751509880216745e-05
-6.200366216525588e-05
-5.9247943846800084e-05
-5.6492225528344285e-05
-5.3736507209888505e-05
-5.098078889143272e-05
-4.8225070572976926e-05
-4.5469352254521147e-05
-4.8225070572976926e-05
-5.3736507209888505e-05
-5.6492225528344285e-05
-5.3736507209888505e-05
-5.098078889143272e-05
-5.6492225528344285e-05
-5.9247943846800084e-05
-5.9247943846800084e-05
-5.3736507209888505e-05
-4.2713633936065354e-05
-3.720219729915378e-05
-3.4446478980697995e-05
-3.169076066224221e-05
-2.342360570687485e-05
-2.066788738841907e-05
-2.066788738841907e-05
-2.066788738841907e-05
-2.342360570687485e-05
-2.342360570687485e-05
-1.7912169069963278e-05
-1.7912169069963278e-05
-2.6179324025330647e-05
-2.6179324025330647e-05
-2.6179324025330647e-05
-2.066788738841907e-05
-1.5156450751507488e-05
-1.5156450751507488e-05
-1.5156450751507488e-05
-1.240073243305171e-05
-9.64501411459592e-06
-9.64501411459592e-06
-6.889295796140132e-06
-1.240073243305171e-05
-9.64501411459592e-06
-4.133577477684346e-06
1.3778591592272275e-06
1.3778591592272275e-06
-1.377859159228559e-06
-1.377859159228559e-06
4.133577477683014e-06
6.8892957961388014e-06
1.2400732433050376e-05
1.2400732433050376e-05
1.2400732433050376e-05
1.5156450751506162e-05
2.3423605706873515e-05
1.7912169069961946e-05
2.066788738841773e-05
3.169076066224089e-05
4.82250705729756e-05
5.9247943846798756e-05
5.9247943846798756e-05
5.9247943846798756e-05
5.373650720988717e-05
5.373650720988717e-05
5.649222552834297e-05
5.373650720988717e-05
4.546935225451981e-05
3.444647898069667e-05
1.7912169069961946e-05
4.133577477683014e-06
-4.133577477684346e-06
-6.889295796140132e-06
-9.64501411459592e-06
-1.7912169069963278e-05
-2.066788738841907e-05
-2.6179324025330647e-05
-2.8935042343786426e-05
-3.169076066224221e-05
-3.169076066224221e-05
-2.8935042343786426e-05
-3.169076066224221e-05
-3.995791561760957e-05
-4.8225070572976926e-05
-5.6492225528344285e-05
-7.85379720759906e-05
-0.00013089662012665053
-0.00015294236667429682
-7.85379720759906e-05
8.956084534981241e-05
0.00037891126878767
0.0008088033264667726
0.0012359396658274198
0.0014811985961699847
0.0014949771877622636
0.0012414511024643313
0.0008694291294728002
0.0004726056916151668
0.00015294236667429551
-1.377859159228559e-06
-5.3736507209888505e-05
-5.6492225528344285e-05
-5.3736507209888505e-05
-7.57822537575348e-05
-9.231656366826955e-05
-9.78280003051811e-05
-9.78280003051811e-05
-0.00010333943694209268
-0.00010609515526054846
-0.00010609515526054846
-0.00010333943694209268
-9.78280003051811e-05
-9.507228198672531e-05
-9.78280003051811e-05
-0.00010333943694209268
-0.00010058371862363688
-9.507228198672531e-05
-8.956084534981374e-05
-9.507228198672531e-05
-9.78280003051811e-05
-9.507228198672531e-05
-8.680512703135793e-05
-8.404940871290214e-05
-8.129369039444639e-05
-8.404940871290214e-05
-8.680512703135793e-05
-7.85379720759906e-05
-7.57822537575348e-05
-7.85379720759906e-05
-7.57822537575348e-05
-7.57822537575348e-05
-7.027081712062322e-05
-6.751509880216745e-05
-7.302653543907902e-05
-7.027081712062322e-05
-6.751509880216745e-05
-6.200366216525588e-05
-5.9247943846800084e-05
-6.200366216525588e-05
-6.751509880216745e-05
-6.475938048371164e-05
-6.751509880216745e-05
-6.751509880216745e-05
-7.027081712062322e-05
-7.302653543907902e-05
-7.302653543907902e-05
-6.751509880216745e-05
-6.475938048371164e-05
-6.475938048371164e-05
-6.475938048371164e-05
-6.200366216525588e-05
-5.3736507209888505e-05
-4.2713633936065354e-05
-3.995791561760957e-05
-4.5469352254521147e-05
-4.8225070572976926e-05
-4.5469352254521147e-05
-4.5469352254521147e-05
-4.2713633936065354e-05
-5.098078889143272e-05
-5.098078889143272e-05
-4.8225070572976926e-05
-4.8225070572976926e-05
-4.5469352254521147e-05
-4.5469352254521147e-05
-4.8225070572976926e-05
-4.8225070572976926e-05
-4.5469352254521147e-05
-4.8225070572976926e-05
-5.098078889143272e-05
-5.098078889143272e-05
-4.5469352254521147e-05
-4.5469352254521147e-05
-4.2713633936065354e-05
-4.5469352254521147e-05
-4.8225070572976926e-05
-5.098078889143272e-05
-4.5469352254521147e-05
-4.2713633936065354e-05
-4.2713633936065354e-05
-3.995791561760957e-05
-3.4446478980697995e-05
-2.8935042343786426e-05
-2.342360570687485e-05
-2.342360570687485e-05
-2.6179324025330647e-05
-2.6179324025330647e-05
-2.066788738841907e-05
-1.240073243305171e-05
-1.377859159228559e-06
9.64501411459459e-06
1.2400732433050376e-05
1.7912169069961946e-05
2.3423605706873515e-05
1.7912169069961946e-05
6.8892957961388014e-06
9.64501411459459e-06
9.64501411459459e-06
6.8892957961388014e-06
-6.889295796140132e-06
-2.8935042343786426e-05
-4.2713633936065354e-05
-4.8225070572976926e-05
-5.098078889143272e-05
-5.3736507209888505e-05
-6.475938048371164e-05
-7.302653543907902e-05
-7.027081712062322e-05
-6.751509880216745e-05
-6.751509880216745e-05
-7.57822537575348e-05
-7.57822537575348e-05
-7.302653543907902e-05
-7.85379720759906e-05
-8.404940871290214e-05
-9.78280003051811e-05
-0.0001336523384451063
-0.00018049954985885472
-0.0001584538033112084
-4.8225070572976926e-05
0.00014467521171892812
0.000469849973296711
0.0009162763408865484
0.0012993211871519031
0.001500488624399175
0.0014288399481193247
0.0011064209048599978
0.0007040860303654528
0.0003072625925078196
5.373650720988717e-05
-5.9247943846800084e-05
-0.00010058371862363688
-9.78280003051811e-05
-0.00010058371862363688
-0.0001171180285343716
-0.00012814090180819475
-0.0001391637750820179
-0.00014467521171892948
-0.00014743093003738526
-0.00014191949340047367
-0.00014191949340047367
-0.00014743093003738526
-0.00014191949340047367
-0.0001391637750820179
-0.0001364080567635621
-0.0001364080567635621
-0.0001364080567635621
-0.0001391637750820179
-0.0001364080567635621
-0.00013089662012665053
-0.00013089662012665053
-0.0001336523384451063
-0.00013089662012665053
-0.00012538518348973897
-0.0001198737468528274
-0.0001198737468528274
-0.0001198737468528274
-0.0001171180285343716
-0.00011436231021591582
-0.00011436231021591582
-0.00011436231021591582
-0.0001171180285343716
-0.0001171180285343716
-0.00011436231021591582
-0.00011436231021591582
-0.00011436231021591582
-0.00011436231021591582
-0.0001171180285343716
-0.0001171180285343716
-0.00011436231021591582
-0.00010885087357900426
-0.00011160659189746003
-0.0001171180285343716
-0.0001171180285343716
-0.00011436231021591582
-0.00011436231021591582
-0.00011436231021591582
-0.00011436231021591582
-0.00011160659189746003
-0.00010333943694209268
-8.956084534981374e-05
-8.129369039444639e-05
-7.85379720759906e-05
-7.302653543907902e-05
-7.027081712062322e-05
-7.027081712062322e-05
-7.027081712062322e-05
-7.302653543907902e-05
-7.57822537575348e-05
-7.57822537575348e-05
-7.302653543907902e-05
-7.027081712062322e-05
-7.57822537575348e-05
-8.129369039444639e-05
-7.85379720759906e-05
-7.57822537575348e-05
-7.027081712062322e-05
-7.027081712062322e-05
-7.57822537575348e-05
-7.57822537575348e-05
-7.302653543907902e-05
-6.475938048371164e-05
-6.475938048371164e-05
-7.027081712062322e-05
-6.751509880216745e-05
-6.475938048371164e-05
-6.200366216525588e-05
-6.475938048371164e-05
-6.751509880216745e-05
-6.751509880216745e-05
-6.200366216525588e-05
-6.475938048371164e-05
-6.751509880216745e-05
-6.751509880216745e-05
-6.475938048371164e-05
-5.9247943846800084e-05
-5.6492225528344285e-05
-5.3736507209888505e-05
-5.6492225528344285e-05
-5.6492225528344285e-05
-5.3736507209888505e-05
-5.3736507209888505e-05
-5.9247943846800084e-05
-5.9247943846800084e-05
-4.8225070572976926e-05
-3.4446478980697995e-05
-2.342360570687485e-05
-1.7912169069963278e-05
-1.5156450751507488e-05
-1.7912169069963278e-05
-1.5156450751507488e-05
-1.240073243305171e-05
-1.5156450751507488e-05
-2.6179324025330647e-05
-3.995791561760957e-05
-5.3736507209888505e-05
-6.751509880216745e-05
-7.57822537575348e-05
-7.85379720759906e-05
-8.404940871290214e-05
-9.231656366826955e-05
-9.231656366826955e-05
-9.231656366826955e-05
-9.78280003051811e-05
-0.00010333943694209268
-0.00010333943694209268
-0.00010058371862363688
-9.78280003051811e-05
-0.00010058371862363688
-0.00011160659189746003
-0.0001171180285343716
-0.0001336523384451063
-0.00018049954985885472
-0.00020530101472495681
-0.00013089662012665053
2.8935042343785094e-05
0.000301751155870908
0.0007151089036392759
0.0011642909895475692
0.0014674200045777057
0.0015390686808575565
0.0013048326237888143
0.0009190320592050041
0.0004891400015259016
0.00015018664835583973
-2.066788738841907e-05
-0.00011436231021591582
-0.00011160659189746003
-0.00013089662012665053
-0.00015569808499275262
-0.00016672095826657574
-0.00016947667658503157
-0.00016947667658503157
-0.00017498811322194308
-0.00018049954985885472
-0.0001777438315403989
-0.00017223239490348733
-0.00016947667658503157
-0.00016947667658503157
-0.00017223239490348733
-0.00017223239490348733
-0.00016947667658503157
-0.00016396523994811996
-0.0001612095216296642
-0.00016396523994811996
-0.00016396523994811996
-0.00015569808499275262
-0.000150186648355841
-0.00014743093003738526
-0.00014743093003738526
-0.000150186648355841
-0.00014743093003738526
-0.00014191949340047367
-0.0001391637750820179
-0.0001391637750820179
-0.0001391637750820179
-0.0001364080567635621
-0.0001364080567635621
-0.0001364080567635621
-0.0001391637750820179
-0.00014191949340047367
-0.0001391637750820179
-0.0001391637750820179
-0.0001364080567635621
-0.00013089662012665053
-0.0001336523384451063
-0.0001364080567635621
-0.0001336523384451063
-0.00013089662012665053
-0.0001336523384451063
-0.00013089662012665053
-0.00012814090180819475
-0.0001226294651712832
-0.00011160659189746003
-0.00010333943694209268
-0.00010058371862363688
-9.507228198672531e-05
-8.404940871290214e-05
-7.85379720759906e-05
-7.302653543907902e-05
-7.57822537575348e-05
-8.404940871290214e-05
-8.129369039444639e-05
-7.85379720759906e-05
-7.85379720759906e-05
-8.129369039444639e-05
-8.680512703135793e-05
-9.231656366826955e-05
-8.404940871290214e-05
-8.404940871290214e-05
-8.404940871290214e-05
-8.680512703135793e-05
-8.404940871290214e-05
-7.85379720759906e-05
-7.57822537575348e-05
-7.57822537575348e-05
-7.85379720759906e-05
-7.57822537575348e-05
-7.027081712062322e-05
-6.751509880216745e-05
-7.302653543907902e-05
-7.302653543907902e-05
-7.302653543907902e-05
-6.751509880216745e-05
-6.751509880216745e-05
-7.027081712062322e-05
-7.302653543907902e-05
-7.027081712062322e-05
-6.475938048371164e-05
-6.475938048371164e-05
-7.027081712062322e-05
-7.57822537575348e-05
-7.57822537575348e-05
-7.302653543907902e-05
-7.302653543907902e-05
-7.57822537575348e-05
-7.57822537575348e-05
-7.302653543907902e-05
-7.027081712062322e-05
-7.027081712062322e-05
-7.302653543907902e-05
-7.85379720759906e-05
-7.85379720759906e-05
-7.027081712062322e-05
-5.3736507209888505e-05
-4.2713633936065354e-05
-3.995791561760957e-05
-3.4446478980697995e-05
-3.169076066224221e-05
-3.169076066224221e-05
-3.4446478980697995e-05
-3.720219729915378e-05
-4.2713633936065354e-05
-4.8225070572976926e-05
-5.6492225528344285e-05
-7.302653543907902e-05
-8.680512703135793e-05
-9.231656366826955e-05
-9.507228198672531e-05
-9.78280003051811e-05
-0.00010058371862363688
-0.00010609515526054846
-0.00010885087357900426
-0.00011160659189746003
-0.00011160659189746003
-0.00011436231021591582
-0.00011160659189746003
-0.00011436231021591582
-0.0001226294651712832
-0.0001226294651712832
-0.00016672095826657574
-0.00022459104295414727
-0.0001997895780880452
-7.027081712062322e-05
0.00014743093003738393
0.0005056743114366363
0.0009796578622110316
0.0013930156099793995
0.0016052059205004952
0.0015363129625391005
0.0011946038910505827
0.0007619561150530243
0.0003293083390554659
5.9247943846798756e-05
-5.6492225528344285e-05
-0.00010333943694209268
-0.00011436231021591582
-0.00012538518348973897
-0.000150186648355841
-0.00016396523994811996
-0.00016947667658503157
-0.00017223239490348733
-0.00017498811322194308
-0.00018049954985885472
-0.00018049954985885472
-0.00017223239490348733
-0.00017223239490348733
-0.00017498811322194308
-0.00017498811322194308
-0.00017223239490348733
-0.00016947667658503157
-0.00016672095826657574
-0.00016396523994811996
-0.0001612095216296642
-0.00016396523994811996
-0.0001584538033112084
-0.00015569808499275262
-0.00015569808499275262
-0.00015569808499275262
-0.0001584538033112084
-0.00015294236667429682
-0.00014743093003738526
-0.000150186648355841
-0.000150186648355841
-0.00014743093003738526
-0.00014467521171892948
-0.00014191949340047367
-0.0001391637750820179
-0.00014467521171892948
-0.00014191949340047367
-0.0001391637750820179
-0.00013089662012665053
-0.00013089662012665053
-0.0001364080567635621
-0.0001364080567635621
-0.0001391637750820179
-0.0001364080567635621
-0.0001391637750820179
-0.00014191949340047367
-0.00014191949340047367
-0.0001391637750820179
-0.00013089662012665053
-0.0001198737468528274
-0.0001171180285343716
-0.00010885087357900426
-9.78280003051811e-05
-8.404940871290214e-05
-8.129369039444639e-05
-8.404940871290214e-05
-8.404940871290214e-05
-8.404940871290214e-05
-8.404940871290214e-05
-8.404940871290214e-05
-8.956084534981374e-05
-9.78280003051811e-05
-9.507228198672531e-05
-9.231656366826955e-05
-8.956084534981374e-05
-9.231656366826955e-05
-9.78280003051811e-05
-9.231656366826955e-05
-8.680512703135793e-05
-8.680512703135793e-05
-8.680512703135793e-05
-8.404940871290214e-05
-8.129369039444639e-05
-7.57822537575348e-05
-7.027081712062322e-05
-7.027081712062322e-05
-7.302653543907902e-05
-7.027081712062322e-05
-7.027081712062322e-05
-6.751509880216745e-05
-7.027081712062322e-05
-7.57822537575348e-05
-7.85379720759906e-05
-7.57822537575348e-05
-7.027081712062322e-05
-7.302653543907902e-05
-8.129369039444639e-05
-8.404940871290214e-05
-7.57822537575348e-05
-7.57822537575348e-05
-7.85379720759906e-05
-8.129369039444639e-05
-8.129369039444639e-05
-7.85379720759906e-05
-7.57822537575348e-05
-7.57822537575348e-05
-7.85379720759906e-05
-8.129369039444639e-05
-8.404940871290214e-05
-8.129369039444639e-05
-7.57822537575348e-05
-6.751509880216745e-05
-5.9247943846800084e-05
-4.8225070572976926e-05
-3.995791561760957e-05
-3.4446478980697995e-05
-3.4446478980697995e-05
-4.2713633936065354e-05
-4.2713633936065354e-05
-3.720219729915378e-05
-3.995791561760957e-05
-4.8225070572976926e-05
-8.404940871290214e-05
-9.507228198672531e-05
-9.231656366826955e-05
-9.507228198672531e-05
-0.00010609515526054846
-0.00011436231021591582
-0.0001198737468528274
-0.0001198737468528274
-0.0001171180285343716
-0.00012538518348973897
-0.0001226294651712832
-0.0001198737468528274
-0.0001171180285343716
-0.0001226294651712832
-0.00013089662012665053
-0.00014467521171892948
-0.00018876670481422206
-0.00023285819790951464
-0.00018876670481422206
-4.8225070572976926e-05
0.00019978957808804387
0.000599368734264133
0.0011009094682230861
0.001500488624399175
0.0016768545967803456
0.0015445801174944675
0.0011642909895475692
0.0007123531853208202
0.0002852168459601733
3.9957915617608246e-05
-7.57822537575348e-05
-0.0001226294651712832
-0.00012538518348973897
-0.0001364080567635621
-0.00015569808499275262
-0.00017498811322194308
-0.00018601098649576628
-0.00018601098649576628
-0.00018876670481422206
-0.00018601098649576628
-0.00018601098649576628
-0.00018601098649576628
-0.00018325526817731047
-0.0001777438315403989
-0.0001777438315403989
-0.0001777438315403989
-0.00018325526817731047
-0.00018049954985885472
-0.00017498811322194308
-0.00016672095826657574
-0.00016396523994811996
-0.00016672095826657574
-0.00016947667658503157
-0.00016672095826657574
-0.00016396523994811996
-0.0001612095216296642
-0.0001612095216296642
-0.00015569808499275262
-0.00015294236667429682
-0.00014743093003738526
-0.00014467521171892948
-0.00014467521171892948
-0.00014191949340047367
-0.0001391637750820179
-0.0001364080567635621
-0.0001391637750820179
-0.0001391637750820179
-0.0001336523384451063
-0.00012814090180819475
-0.00012538518348973897
-0.00012814090180819475
-0.0001336523384451063
-0.0001391637750820179
-0.0001391637750820179
-0.0001391637750820179
-0.0001391637750820179
-0.00014191949340047367
-0.0001364080567635621
-0.00013089662012665053
-0.0001226294651712832
-0.0001171180285343716
-0.00011436231021591582
-0.00010609515526054846
-0.00010058371862363688
-9.231656366826955e-05
-8.956084534981374e-05
-9.231656366826955e-05
-9.507228198672531e-05
-0.00010058371862363688
-0.00010333943694209268
-0.00010058371862363688
-0.00010885087357900426
-0.00011160659189746003
-0.00011160659189746003
-0.00010609515526054846
-0.00010333943694209268
-0.00010333943694209268
-0.00010609515526054846
-0.00010609515526054846
-9.507228198672531e-05
-8.956084534981374e-05
-8.956084534981374e-05
-9.231656366826955e-05
-8.680512703135793e-05
-8.404940871290214e-05
-7.85379720759906e-05
-7.57822537575348e-05
-7.85379720759906e-05
-8.129369039444639e-05
-8.129369039444639e-05
-8.129369039444639e-05
-7.85379720759906e-05
-8.129369039444639e-05
-8.129369039444639e-05
-8.404940871290214e-05
-8.404940871290214e-05
-8.129369039444639e-05
-8.404940871290214e-05
-8.956084534981374e-05
-8.956084534981374e-05
-8.404940871290214e-05
-8.129369039444639e-05
-8.129369039444639e-05
-8.404940871290214e-05
-8.404940871290214e-05
-8.404940871290214e-05
-8.404940871290214e-05
-7.57822537575348e-05
-5.9247943846800084e-05
-4.8225070572976926e-05
-3.4446478980697995e-05
-3.4446478980697995e-05
-3.995791561760957e-05
-4.5469352254521147e-05
-4.5469352254521147e-05
-4.2713633936065354e-05
-4.2713633936065354e-05
-5.6492225528344285e-05
-7.302653543907902e-05
-8.680512703135793e-05
-9.78280003051811e-05
-0.00010058371862363688
-0.00010333943694209268
-0.00011436231021591582
-0.0001198737468528274
-0.0001198737468528274
-0.0001198737468528274
-0.0001226294651712832
-0.00012538518348973897
-0.00012538518348973897
-0.0001198737468528274
-0.0001198737468528274
-0.00012538518348973897
-0.0001336523384451063
-0.00015294236667429682
-0.00020254529640650095
-0.00024939250782024937
-0.00019703385976958942
-4.5469352254521147e-05
0.0002135681696803228
0.0006407045090409697
0.0011615352712291134
0.001558358709086747
0.00172645752651255
0.0015776487373159373
0.0011890924544136717
0.0007261317769130989
0.00029072828259708476
3.444647898069667e-05
-8.129369039444639e-05
-0.00011436231021591582
-0.0001171180285343716
-0.00013089662012665053
-0.00015569808499275262
-0.0001777438315403989
-0.00018601098649576628
-0.00018876670481422206
-0.00018325526817731047
-0.00018601098649576628
-0.00018876670481422206
-0.00018601098649576628
-0.00018325526817731047
-0.0001777438315403989
-0.00017498811322194308
-0.0001777438315403989
-0.0001777438315403989
-0.00016947667658503157
-0.00016672095826657574
-0.00016396523994811996
-0.00016396523994811996
-0.0001612095216296642
-0.0001584538033112084
-0.00015294236667429682
-0.00015294236667429682
-0.00015294236667429682
-0.00015294236667429682
-0.000150186648355841
-0.00014467521171892948
-0.00014467521171892948
-0.00014191949340047367
-0.0001391637750820179
-0.0001364080567635621
-0.00012538518348973897
-0.00012538518348973897
-0.00012814090180819475
-0.00012538518348973897
-0.0001198737468528274
-0.0001171180285343716
-0.00011436231021591582
-0.00011436231021591582
-0.0001198737468528274
-0.0001198737468528274
-0.0001171180285343716
-0.0001171180285343716
-0.0001198737468528274
-0.0001226294651712832
-0.0001226294651712832
-0.0001171180285343716
-0.00011160659189746003
-0.00010885087357900426
-0.00010058371862363688
-8.956084534981374e-05
-8.404940871290214e-05
-7.85379720759906e-05
-7.85379720759906e-05
-8.129369039444639e-05
-8.404940871290214e-05
-8.404940871290214e-05
-8.404940871290214e-05
-8.956084534981374e-05
-9.507228198672531e-05
-9.78280003051811e-05
-9.231656366826955e-05
-8.680512703135793e-05
-8.680512703135793e-05
-8.680512703135793e-05
-8.680512703135793e-05
-8.404940871290214e-05
-7.85379720759906e-05
-7.57822537575348e-05
-7.57822537575348e-05
-7.302653543907902e-05
-6.751509880216745e-05
-6.200366216525588e-05
-5.9247943846800084e-05
-5.9247943846800084e-05
-6.200366216525588e-05
-5.9247943846800084e-05
-5.9247943846800084e-05
-5.9247943846800084e-05
-6.200366216525588e-05
-6.200366216525588e-05
-5.9247943846800084e-05
-5.6492225528344285e-05
-6.200366216525588e-05
-6.200366216525588e-05
-5.9247943846800084e-05
-5.3736507209888505e-05
-4.5469352254521147e-05
-4.5469352254521147e-05
-4.8225070572976926e-05
-5.098078889143272e-05
-5.3736507209888505e-05
-4.8225070572976926e-05
-4.2713633936065354e-05
-3.4446478980697995e-05
-2.6179324025330647e-05
-1.240073243305171e-05
-1.377859159228559e-06
-1.377859159228559e-06
-6.889295796140132e-06
-9.64501411459592e-06
-9.64501411459592e-06
-9.64501411459592e-06
-1.240073243305171e-05
-2.6179324025330647e-05
-4.8225070572976926e-05
-6.475938048371164e-05
-6.751509880216745e-05
-6.475938048371164e-05
-7.302653543907902e-05
-8.680512703135793e-05
-8.680512703135793e-05
-8.680512703135793e-05
-8.680512703135793e-05
-8.956084534981374e-05
-8.956084534981374e-05
-8.680512703135793e-05
-8.404940871290214e-05
-8.680512703135793e-05
-9.507228198672531e-05
-0.00010609515526054846
-0.0001364080567635621
-0.00018876670481422206
-0.0001997895780880452
-0.00010609515526054846
7.02708171206219e-05
0.00037615555046921414
0.0008308490730144192
0.001285542595559624
0.0015666258640421142
0.0015914273289082165
0.001321366933699549
0.0009272992141603715
0.0004946514381628131
0.00015845380331120705
-6.889295796140132e-06
-7.85379720759906e-05
-9.78280003051811e-05
-9.507228198672531e-05
-0.00011160659189746003
-0.0001391637750820179
-0.00014467521171892948
-0.00014743093003738526
-0.00014467521171892948
-0.00014467521171892948
-0.00014467521171892948
-0.00014467521171892948
-0.00014467521171892948
-0.0001391637750820179
-0.0001336523384451063
-0.0001336523384451063
-0.0001364080567635621
-0.0001336523384451063
-0.00013089662012665053
-0.00013089662012665053
-0.00013089662012665053
-0.00013089662012665053
-0.00012814090180819475
-0.00012538518348973897
-0.0001198737468528274
-0.0001171180285343716
-0.00011436231021591582
-0.00011160659189746003
-0.00010885087357900426
-0.00010333943694209268
-0.00010058371862363688
-0.00010333943694209268
-0.00010058371862363688
-9.78280003051811e-05
-9.507228198672531e-05
-8.956084534981374e-05
-8.956084534981374e-05
-8.956084534981374e-05
-8.680512703135793e-05
-7.85379720759906e-05
-7.57822537575348e-05
-8.404940871290214e-05
-8.680512703135793e-05
-8.404940871290214e-05
-8.129369039444639e-05
-8.129369039444639e-05
-8.680512703135793e-05
-9.231656366826955e-05
-8.680512703135793e-05
-7.85379720759906e-05
-7.302653543907902e-05
-6.751509880216745e-05
-6.751509880216745e-05
-6.475938048371164e-05
-5.6492225528344285e-05
-5.098078889143272e-05
-4.5469352254521147e-05
-5.098078889143272e-05
-5.6492225528344285e-05
-5.9247943846800084e-05
-5.6492225528344285e-05
-5.6492225528344285e-05
-5.9247943846800084e-05
-6.200366216525588e-05
-5.9247943846800084e-05
-5.3736507209888505e-05
-5.3736507209888505e-05
-5.9247943846800084e-05
-5.6492225528344285e-05
-4.8225070572976926e-05
-4.5469352254521147e-05
-4.5469352254521147e-05
-4.2713633936065354e-05
-3.720219729915378e-05
-3.4446478980697995e-05
-3.169076066224221e-05
-3.169076066224221e-05
-3.720219729915378e-05
-3.720219729915378e-05
-3.169076066224221e-05
-2.8935042343786426e-05
-2.6179324025330647e-05
-2.8935042343786426e-05
-3.169076066224221e-05
-3.169076066224221e-05
-2.342360570687485e-05
-2.066788738841907e-05
-2.066788738841907e-05
-1.7912169069963278e-05
-1.7912169069963278e-05
-9.64501411459592e-06
-6.889295796140132e-06
-9.64501411459592e-06
-1.240073243305171e-05
-6.889295796140132e-06
9.64501411459459e-06
2.066788738841773e-05
2.6179324025329308e-05
3.169076066224089e-05
2.8935042343785094e-05
2.3423605706873515e-05
2.6179324025329308e-05
2.6179324025329308e-05
1.7912169069961946e-05
9.64501411459459e-06
-1.377859159228559e-06
-1.5156450751507488e-05
-2.8935042343786426e-05
-3.720219729915378e-05
-3.995791561760957e-05
-4.2713633936065354e-05
-4.5469352254521147e-05
-4.8225070572976926e-05
-5.098078889143272e-05
-5.3736507209888505e-05
-5.6492225528344285e-05
-5.6492225528344285e-05
-5.3736507209888505e-05
-5.3736507209888505e-05
-6.200366216525588e-05
-7.027081712062322e-05
-7.302653543907902e-05
-9.231656366826955e-05
-0.000150186648355841
-0.00016672095826657574
-8.129369039444639e-05
9.507228198672396e-05
0.00038993414206149314
0.0008198261997405958
0.0014811985961699847
0.0014949771877622636
0.0012359396658274198
0.0008528948195620654
0.0004478042267490647
0.00013365233844510492
-2.066788738841907e-05
-6.751509880216745e-05
-6.751509880216745e-05
-7.027081712062322e-05
-8.956084534981374e-05
-0.00010609515526054846
-0.00010885087357900426
-0.00011160659189746003
-0.0001198737468528274
-0.00012538518348973897
-0.0001226294651712832
-0.0001171180285343716
-0.00011436231021591582
-0.00011160659189746003
-0.0001171180285343716
-0.0001171180285343716
-0.00011160659189746003
-0.00010885087357900426
-0.00010885087357900426
-0.00010885087357900426
-0.00010609515526054846
-0.00010333943694209268
-0.00010058371862363688
-0.00010333943694209268
-0.00010333943694209268
-0.00010333943694209268
-0.00010058371862363688
-9.231656366826955e-05
-9.231656366826955e-05
-9.507228198672531e-05
-9.507228198672531e-05
-9.231656366826955e-05
-8.680512703135793e-05
-8.680512703135793e-05
-8.680512703135793e-05
-8.404940871290214e-05
-8.129369039444639e-05
-7.57822537575348e-05
-6.751509880216745e-05
-6.475938048371164e-05
-6.751509880216745e-05
-7.027081712062322e-05
-6.475938048371164e-05
-6.475938048371164e-05
-7.027081712062322e-05
-7.57822537575348e-05
-7.85379720759906e-05
-7.57822537575348e-05
-7.302653543907902e-05
-7.027081712062322e-05
-7.027081712062322e-05
-7.027081712062322e-05
-6.200366216525588e-05
-5.3736507209888505e-05
-5.098078889143272e-05
-5.098078889143272e-05
-5.3736507209888505e-05
-4.8225070572976926e-05
-4.5469352254521147e-05
-4.8225070572976926e-05
-5.6492225528344285e-05
-5.9247943846800084e-05
-5.6492225528344285e-05
-5.6492225528344285e-05
-5.9247943846800084e-05
-6.200366216525588e-05
-6.200366216525588e-05
-5.9247943846800084e-05
-5.6492225528344285e-05
-5.6492225528344285e-05
-6.200366216525588e-05
-6.200366216525588e-05
-6.200366216525588e-05
-5.6492225528344285e-05
-5.098078889143272e-05
-5.3736507209888505e-05
-5.6492225528344285e-05
-5.6492225528344285e-05
-5.098078889143272e-05
-5.098078889143272e-05
-5.9247943846800084e-05
-5.9247943846800084e-05
-5.9247943846800084e-05
-5.9247943846800084e-05
-5.6492225528344285e-05
-5.3736507209888505e-05
-5.098078889143272e-05
-4.5469352254521147e-05
-3.995791561760957e-05
-3.995791561760957e-05
-3.995791561760957e-05
-4.2713633936065354e-05
-4.2713633936065354e-05
-3.995791561760957e-05
-2.6179324025330647e-05
-1.5156450751507488e-05
-6.889295796140132e-06
-4.133577477684346e-06
-4.133577477684346e-06
-1.377859159228559e-06
-4.133577477684346e-06
-9.64501411459592e-06
-9.64501411459592e-06
-1.240073243305171e-05
-2.066788738841907e-05
-3.4446478980697995e-05
-5.3736507209888505e-05
-6.751509880216745e-05
-7.027081712062322e-05
-6.751509880216745e-05
-7.027081712062322e-05
-7.85379720759906e-05
-8.404940871290214e-05
-8.956084534981374e-05
-8.680512703135793e-05
-8.680512703135793e-05
-8.956084534981374e-05
-9.231656366826955e-05
-9.231656366826955e-05
-9.507228198672531e-05
-0.00010609515526054846
-0.000150186648355841
-0.0001997895780880452
-0.00017223239490348733
-5.6492225528344285e-05
0.00015018664835583973
0.0004891400015259016
0.0009383220874341949
0.0013103440604257258
0.001500488624399175
0.0014095499198901345
0.0010761080033569843
0.000676528847180895
0.00027970540932326175
3.444647898069667e-05
-6.475938048371164e-05
-0.00010058371862363688
-0.00010333943694209268
-0.00011436231021591582
-0.00012814090180819475
-0.00014191949340047367
-0.00014743093003738526
-0.00015569808499275262
-0.0001612095216296642
-0.0001584538033112084
-0.00015569808499275262
-0.0001584538033112084
-0.0001612095216296642
-0.0001584538033112084
-0.00015569808499275262
-0.000150186648355841
-0.000150186648355841
-0.00015294236667429682
-0.000150186648355841
-0.00014743093003738526
-0.00014191949340047367
-0.00014191949340047367
-0.00014191949340047367
-0.00014191949340047367
-0.0001391637750820179
-0.0001336523384451063
-0.00013089662012665053
-0.0001336523384451063
-0.0001364080567635621
-0.00013089662012665053
-0.00012538518348973897
-0.0001198737468528274
-0.00012538518348973897
-0.00012814090180819475
-0.00012814090180819475
-0.0001226294651712832
-0.0001171180285343716
-0.00011436231021591582
-0.0001171180285343716
-0.0001198737468528274
-0.0001198737468528274
-0.0001198737468528274
-0.0001198737468528274
-0.0001226294651712832
-0.00012538518348973897
-0.0001198737468528274
-0.0001198737468528274
-0.0001198737468528274
-0.0001171180285343716
-0.00010609515526054846
-9.78280003051811e-05
-9.231656366826955e-05
-8.956084534981374e-05
-8.404940871290214e-05
-7.85379720759906e-05
-8.129369039444639e-05
-8.129369039444639e-05
-8.129369039444639e-05
-8.404940871290214e-05
-8.680512703135793e-05
-8.680512703135793e-05
-8.404940871290214e-05
-8.680512703135793e-05
-9.231656366826955e-05
-9.231656366826955e-05
-8.956084534981374e-05
-8.680512703135793e-05
-8.680512703135793e-05
-8.956084534981374e-05
-8.680512703135793e-05
-8.404940871290214e-05
-8.129369039444639e-05
-8.129369039444639e-05
-8.404940871290214e-05
-8.404940871290214e-05
-7.57822537575348e-05
-7.302653543907902e-05
-7.027081712062322e-05
-7.302653543907902e-05
-7.85379720759906e-05
-7.85379720759906e-05
-7.302653543907902e-05
-6.751509880216745e-05
-7.027081712062322e-05
-7.85379720759906e-05
-8.129369039444639e-05
-7.85379720759906e-05
-7.302653543907902e-05
-7.302653543907902e-05
-7.57822537575348e-05
-7.57822537575348e-05
-7.027081712062322e-05
-6.475938048371164e-05
-6.475938048371164e-05
-6.751509880216745e-05
-7.027081712062322e-05
-7.302653543907902e-05
-6.475938048371164e-05
-4.8225070572976926e-05
-3.720219729915378e-05
-3.169076066224221e-05
-2.6179324025330647e-05
-2.342360570687485e-05
-2.6179324025330647e-05
-3.4446478980697995e-05
-3.995791561760957e-05
-4.2713633936065354e-05
-5.6492225528344285e-05
-8.129369039444639e-05
-9.231656366826955e-05
-9.231656366826955e-05
-9.231656366826955e-05
-9.78280003051811e-05
-0.00010333943694209268
-0.00010885087357900426
-0.00011160659189746003
-0.00010885087357900426
-0.00010609515526054846
-0.00010609515526054846
-0.00011160659189746003
-0.00011160659189746003
-0.00011436231021591582
-0.0001226294651712832
-0.00013089662012665053
-0.0001612095216296642
-0.00021356816968032413
-0.0002080567330434125
-9.78280003051811e-05
9.23165636682682e-05
0.0004092241702906837
0.0008446276646066979
0.0012634968490119777
0.0015032443427176307
0.001489465751125352
0.0011890924544136717
0.0007840018616006707
0.00037064411383230263
8.404940871290084e-05
-5.098078889143272e-05
-0.00010885087357900426
-0.00012538518348973897
-0.00013089662012665053
-0.000150186648355841
-0.00016396523994811996
-0.00017223239490348733
-0.00018049954985885472
-0.00018876670481422206
-0.00018876670481422206
-0.00018049954985885472
-0.0001777438315403989
-0.00018049954985885472
-0.00018325526817731047
-0.00018325526817731047
-0.00018049954985885472
-0.0001777438315403989
-0.00018049954985885472
-0.00018049954985885472
-0.00018049954985885472
-0.00017498811322194308
-0.00016947667658503157
-0.00016396523994811996
-0.00016672095826657574
-0.00016672095826657574
-0.0001612095216296642
-0.0001584538033112084
-0.00015569808499275262
-0.00015569808499275262
-0.00015569808499275262
-0.00015569808499275262
-0.000150186648355841
-0.00014743093003738526
-0.00014743093003738526
-0.00014467521171892948
-0.0001364080567635621
-0.0001336523384451063
-0.0001364080567635621
-0.0001391637750820179
-0.0001391637750820179
-0.0001336523384451063
-0.0001336523384451063
-0.0001391637750820179
-0.0001391637750820179
-0.0001364080567635621
-0.00012814090180819475
-0.0001226294651712832
-0.0001226294651712832
-0.0001226294651712832
-0.0001171180285343716
-0.00010609515526054846
-9.231656366826955e-05
-8.680512703135793e-05
-8.680512703135793e-05
-8.680512703135793e-05
-8.680512703135793e-05
-8.680512703135793e-05
-8.956084534981374e-05
-9.231656366826955e-05
-9.507228198672531e-05
-9.78280003051811e-05
-9.78280003051811e-05
-9.78280003051811e-05
-0.00010333943694209268
-0.00010609515526054846
-0.00010333943694209268
-9.78280003051811e-05
-9.507228198672531e-05
-9.507228198672531e-05
-9.78280003051811e-05
-0.00010058371862363688
-9.507228198672531e-05
-8.956084534981374e-05
-8.680512703135793e-05
-8.680512703135793e-05
-8.680512703135793e-05
-8.680512703135793e-05
-8.404940871290214e-05
-8.404940871290214e-05
-8.680512703135793e-05
-8.956084534981374e-05
-8.680512703135793e-05
-8.404940871290214e-05
-8.680512703135793e-05
-9.231656366826955e-05
-9.231656366826955e-05
-9.231656366826955e-05
-8.680512703135793e-05
-8.404940871290214e-05
-8.680512703135793e-05
-8.956084534981374e-05
-8.680512703135793e-05
-8.404940871290214e-05
-8.680512703135793e-05
-9.507228198672531e-05
-9.507228198672531e-05
-8.404940871290214e-05
-7.027081712062322e-05
-6.200366216525588e-05
-5.3736507209888505e-05
-4.5469352254521147e-05
-3.995791561760957e-05
-3.995791561760957e-05
-4.2713633936065354e-05
-4.8225070572976926e-05
-4.8225070572976926e-05
-5.6492225528344285e-05
-6.751509880216745e-05
-8.129369039444639e-05
-9.78280003051811e-05
-0.00010609515526054846
-0.00010333943694209268
-0.00010609515526054846
-0.00011160659189746003
-0.0001171180285343716
-0.0001226294651712832
-0.00012538518348973897
-0.0001226294651712832
-0.00012538518348973897
-0.00012814090180819475
-0.00012814090180819475
-0.00012538518348973897
-0.00012538518348973897
-0.00013089662012665053
-0.00015569808499275262
-0.00021356816968032413
-0.00024112535286488197
-0.00016396523994811996
-1.377859159228559e-06
0.0002686825360494386
0.0006847960021362622
0.0011587795529106576
0.001492221469443808
0.0015941830472266717
0.0013875041733424878
0.0009879250171663987
0.0005414986495765614
0.00017774383154039756
-9.64501411459592e-06
-9.507228198672531e-05
-0.00012814090180819475
-0.0001336523384451063
-0.000150186648355841
-0.00016947667658503157
-0.00018049954985885472
-0.00018325526817731047
-0.00018876670481422206
-0.00019427814145113364
-0.00018601098649576628
-0.00018049954985885472
-0.00018325526817731047
-0.00018876670481422206
