-8.956084534981374e-05
-0.00010058371862363688
-0.00010058371862363688
-9.231656366826955e-05
-8.404940871290214e-05
-8.956084534981374e-05
-9.231656366826955e-05
-8.680512703135793e-05
-7.57822537575348e-05
-6.200366216525588e-05
-6.751509880216745e-05
-7.57822537575348e-05
-8.129369039444639e-05
-8.129369039444639e-05
-7.57822537575348e-05
-8.129369039444639e-05
-9.231656366826955e-05
-9.231656366826955e-05
-8.404940871290214e-05
-7.302653543907902e-05
-7.57822537575348e-05
-8.680512703135793e-05
-9.231656366826955e-05
-8.404940871290214e-05
-7.85379720759906e-05
-7.57822537575348e-05
-8.680512703135793e-05
-8.680512703135793e-05
-7.85379720759906e-05
-7.302653543907902e-05
-8.129369039444639e-05
-8.956084534981374e-05
-8.956084534981374e-05
-7.85379720759906e-05
-6.475938048371164e-05
-7.57822537575348e-05
-8.956084534981374e-05
-9.231656366826955e-05
-8.404940871290214e-05
-7.57822537575348e-05
-7.57822537575348e-05
-8.680512703135793e-05
-8.404940871290214e-05
-7.302653543907902e-05
-5.9247943846800084e-05
-5.9247943846800084e-05
-7.027081712062322e-05
-7.85379720759906e-05
-7.85379720759906e-05
-7.027081712062322e-05
-6.200366216525588e-05
-6.751509880216745e-05
-6.751509880216745e-05
-5.3736507209888505e-05
-3.4446478980697995e-05
-2.066788738841907e-05
-2.6179324025330647e-05
-3.4446478980697995e-05
-3.720219729915378e-05
-2.6179324025330647e-05
-2.066788738841907e-05
-3.995791561760957e-05
-6.475938048371164e-05
-7.57822537575348e-05
-8.129369039444639e-05
-8.129369039444639e-05
-8.404940871290214e-05
-0.00010058371862363688
-0.00011436231021591582
-0.00011160659189746003
-9.78280003051811e-05
-9.78280003051811e-05
-0.0001171180285343716
-0.0001226294651712832
-0.00011160659189746003
-0.00010333943694209268
-0.00010333943694209268
-0.0001171180285343716
-0.0001226294651712832
-0.0001171180285343716
-0.00010885087357900426
-0.00013089662012665053
-0.00020254529640650095
-0.00024388107118333775
-0.00019427814145113364
-8.956084534981374e-05
8.956084534981241e-05
0.0003733998321507585
0.0007371546501869223
0.0013130997787441814
0.0012882983138780798
0.0010182379186694126
0.0006489716639963371
0.0002989954375524522
0.00011436231021591448
4.546935225451981e-05
-6.889295796140132e-06
-5.3736507209888505e-05
-9.231656366826955e-05
-0.0001226294651712832
-0.0001364080567635621
-0.00015294236667429682
-0.00017498811322194308
-0.00018325526817731047
-0.00018049954985885472
-0.00016947667658503157
-0.00016947667658503157
-0.00018325526817731047
-0.00018876670481422206
-0.00018049954985885472
-0.00016672095826657574
-0.0001612095216296642
-0.00017498811322194308
-0.0001777438315403989
-0.00017223239490348733
-0.0001612095216296642
-0.000150186648355841
-0.00015569808499275262
-0.0001612095216296642
-0.00015569808499275262
-0.00014467521171892948
-0.0001336523384451063
-0.0001364080567635621
-0.00014467521171892948
-0.00014191949340047367
-0.00013089662012665053
-0.0001171180285343716
-0.0001171180285343716
-0.00012538518348973897
-0.00012538518348973897
-0.0001171180285343716
-0.00011160659189746003
-0.00010885087357900426
-0.0001171180285343716
-0.0001198737468528274
-0.00011436231021591582
-9.78280003051811e-05
-9.507228198672531e-05
-0.00010609515526054846
-0.00011436231021591582
-0.00010885087357900426
-9.507228198672531e-05
-9.231656366826955e-05
-0.00010058371862363688
-0.00010885087357900426
-0.00010885087357900426
-9.78280003051811e-05
-8.680512703135793e-05
-9.231656366826955e-05
-9.507228198672531e-05
-8.680512703135793e-05
-6.751509880216745e-05
-7.57822537575348e-05
-8.956084534981374e-05
-8.956084534981374e-05
-8.404940871290214e-05
-7.85379720759906e-05
-8.404940871290214e-05
-0.00010058371862363688
-0.00010333943694209268
-9.507228198672531e-05
-8.680512703135793e-05
-8.404940871290214e-05
-0.00010058371862363688
-0.00010885087357900426
-0.00010333943694209268
-9.231656366826955e-05
-9.507228198672531e-05
-0.00010609515526054846
-0.00011160659189746003
-0.00010609515526054846
-9.231656366826955e-05
-8.404940871290214e-05
-8.956084534981374e-05
-0.00010058371862363688
-9.78280003051811e-05
-8.680512703135793e-05
-8.129369039444639e-05
-8.956084534981374e-05
-9.78280003051811e-05
-9.78280003051811e-05
-9.231656366826955e-05
-8.680512703135793e-05
-9.507228198672531e-05
-0.00010333943694209268
-0.00010885087357900426
-0.00010333943694209268
-8.956084534981374e-05
-8.956084534981374e-05
-0.00010058371862363688
-0.00010333943694209268
-9.78280003051811e-05
-9.231656366826955e-05
-9.507228198672531e-05
-0.00011436231021591582
-0.0001226294651712832
-0.0001171180285343716
-9.507228198672531e-05
-7.85379720759906e-05
-7.85379720759906e-05
-7.85379720759906e-05
-6.751509880216745e-05
-5.6492225528344285e-05
-5.3736507209888505e-05
-6.475938048371164e-05
-7.302653543907902e-05
-7.302653543907902e-05
-7.57822537575348e-05
-7.85379720759906e-05
-0.00010058371862363688
-0.00012538518348973897
-0.00013089662012665053
-0.0001226294651712832
-0.0001198737468528274
-0.0001336523384451063
-0.00014191949340047367
-0.0001364080567635621
-0.00012814090180819475
-0.00013089662012665053
-0.00014467521171892948
-0.00015294236667429682
-0.00014743093003738526
-0.0001336523384451063
-0.00012814090180819475
-0.0001391637750820179
-0.00014743093003738526
-0.00016947667658503157
-0.00022459104295414727
-0.0002521482261387052
-0.00020530101472495681
-0.0001171180285343716
7.30265354390777e-05
0.00040371273365377215
0.0008115590447852286
0.0011450009613183788
0.0013461683985656512
0.001293809750514991
0.0010265050736247801
0.0006517273823147929
0.00029623971923399637
0.00010885087357900291
2.6179324025329308e-05
-1.5156450751507488e-05
-4.5469352254521147e-05
-9.507228198672531e-05
-0.00015294236667429682
-0.00018325526817731047
-0.00019703385976958942
-0.0001997895780880452
-0.0001997895780880452
-0.00021632388799877996
-0.00023285819790951464
-0.00023010247959105888
-0.0002190796063172357
-0.0002080567330434125
-0.00021356816968032413
-0.0002218353246356915
-0.0002190796063172357
-0.0002080567330434125
-0.00020254529640650095
-0.0002108124513618684
-0.0002190796063172357
-0.00021632388799877996
-0.00020530101472495681
-0.00019427814145113364
-0.00019703385976958942
-0.00020530101472495681
-0.00020530101472495681
-0.00019427814145113364
-0.00018049954985885472
-0.00018049954985885472
-0.00018876670481422206
-0.00018876670481422206
-0.0001777438315403989
-0.00016396523994811996
-0.00016396523994811996
-0.00016947667658503157
-0.0001612095216296642
-0.00014743093003738526
-0.00014467521171892948
-0.00015569808499275262
-0.00016396523994811996
-0.00015569808499275262
-0.00014191949340047367
-0.0001336523384451063
-0.00014743093003738526
-0.00015569808499275262
-0.00015294236667429682
-0.0001391637750820179
-0.00013089662012665053
-0.0001364080567635621
-0.00014467521171892948
-0.0001364080567635621
-0.00012538518348973897
-0.0001171180285343716
-0.0001226294651712832
-0.00013089662012665053
-0.0001336523384451063
-0.00012538518348973897
-0.0001198737468528274
-0.0001226294651712832
-0.0001364080567635621
-0.00014743093003738526
-0.0001391637750820179
-0.00012814090180819475
-0.00012814090180819475
-0.0001391637750820179
-0.00014743093003738526
-0.00014467521171892948
-0.0001336523384451063
-0.00012814090180819475
-0.0001391637750820179
-0.00014467521171892948
-0.00014467521171892948
-0.0001336523384451063
-0.0001226294651712832
-0.00012814090180819475
-0.0001391637750820179
-0.00014191949340047367
-0.0001336523384451063
-0.0001226294651712832
-0.00012814090180819475
-0.0001391637750820179
-0.0001391637750820179
-0.00013089662012665053
-0.00012538518348973897
-0.00012814090180819475
-0.00014191949340047367
-0.00014191949340047367
-0.0001336523384451063
-0.00012538518348973897
-0.0001336523384451063
-0.00014743093003738526
-0.00015294236667429682
-0.00014743093003738526
-0.0001336523384451063
-0.00012814090180819475
-0.000150186648355841
-0.00014743093003738526
-0.0001364080567635621
-0.00013089662012665053
-0.00014191949340047367
-0.00014467521171892948
-0.0001364080567635621
-0.0001171180285343716
-0.00010058371862363688
-0.00010058371862363688
-0.00010058371862363688
-0.00010058371862363688
-9.231656366826955e-05
-8.404940871290214e-05
-9.231656366826955e-05
-0.00010885087357900426
-0.0001198737468528274
-0.0001171180285343716
-0.0001171180285343716
-0.0001336523384451063
-0.0001584538033112084
-0.00016396523994811996
-0.0001584538033112084
-0.00015294236667429682
-0.0001584538033112084
-0.00017498811322194308
-0.00018049954985885472
-0.0001777438315403989
-0.00016672095826657574
-0.00016396523994811996
-0.00017223239490348733
-0.0001777438315403989
-0.00017498811322194308
-0.00016396523994811996
-0.00015294236667429682
-0.00016672095826657574
-0.00020530101472495681
-0.0002686825360494398
-0.00029348400091554195
-0.00022734676127260308
-0.00012538518348973897
6.200366216525454e-05
0.0003844227054245816
0.0008005361715114055
0.0011642909895475692
0.0013682141451132974
0.0012993211871519031
0.0010099707637140451
0.0006324373540856024
0.0002852168459601733
0.00010058371862363556
9.64501411459459e-06
-4.5469352254521147e-05
-7.57822537575348e-05
-0.00011160659189746003
-0.00015569808499275262
-0.00019152242313267784
-0.0002108124513618684
-0.0002108124513618684
-0.0002108124513618684
-0.0002108124513618684
-0.0002190796063172357
-0.00021632388799877996
-0.0002080567330434125
-0.00020254529640650095
-0.0002108124513618684
-0.0002190796063172357
-0.00021632388799877996
-0.00020254529640650095
-0.00019427814145113364
-0.0001997895780880452
-0.0002080567330434125
-0.00020530101472495681
-0.00019152242313267784
-0.00018049954985885472
-0.0001777438315403989
-0.00018876670481422206
-0.00019152242313267784
-0.0001777438315403989
-0.0001612095216296642
-0.0001584538033112084
-0.00016396523994811996
-0.00016396523994811996
-0.000150186648355841
-0.0001364080567635621
-0.00013089662012665053
-0.00014191949340047367
-0.00014743093003738526
-0.00014191949340047367
-0.00013089662012665053
-0.00012538518348973897
-0.0001336523384451063
-0.00014467521171892948
-0.00014191949340047367
-0.0001336523384451063
-0.00012538518348973897
-0.0001336523384451063
-0.00014191949340047367
-0.00014743093003738526
-0.0001364080567635621
-0.00012814090180819475
-0.0001391637750820179
-0.00014743093003738526
-0.00014743093003738526
-0.0001336523384451063
-0.0001171180285343716
-0.0001171180285343716
-0.0001226294651712832
-0.00012538518348973897
-0.0001171180285343716
-0.00010609515526054846
-0.00010885087357900426
-0.00012538518348973897
-0.0001364080567635621
-0.00012814090180819475
-0.0001226294651712832
-0.0001226294651712832
-0.00013089662012665053
-0.00014467521171892948
-0.00014191949340047367
-0.00013089662012665053
-0.0001226294651712832
-0.00012538518348973897
-0.0001364080567635621
-0.0001336523384451063
-0.0001171180285343716
-0.0001226294651712832
-0.00012814090180819475
-0.00012538518348973897
-0.00011436231021591582
-9.78280003051811e-05
-0.00010058371862363688
-0.00010885087357900426
-0.00011160659189746003
-0.00010609515526054846
-9.507228198672531e-05
-9.78280003051811e-05
-0.00010885087357900426
-0.00011436231021591582
-0.00011160659189746003
-0.00010333943694209268
-0.00010058371862363688
-0.00011160659189746003
-0.0001171180285343716
-0.00011160659189746003
-0.00010058371862363688
-9.78280003051811e-05
-0.00011160659189746003
-0.00012538518348973897
-0.00012538518348973897
-0.00011160659189746003
-9.78280003051811e-05
-9.507228198672531e-05
-9.78280003051811e-05
-8.956084534981374e-05
-7.302653543907902e-05
-6.200366216525588e-05
-7.027081712062322e-05
-8.680512703135793e-05
-8.404940871290214e-05
-7.027081712062322e-05
-6.751509880216745e-05
-8.129369039444639e-05
-0.00011160659189746003
-0.00012814090180819475
-0.00012814090180819475
-0.0001226294651712832
-0.0001226294651712832
-0.0001364080567635621
-0.00014743093003738526
-0.00014743093003738526
-0.0001364080567635621
-0.0001391637750820179
-0.00015294236667429682
-0.0001612095216296642
-0.0001612095216296642
-0.000150186648355841
-0.0001391637750820179
-0.00014743093003738526
-0.00015294236667429682
-0.00015294236667429682
-0.00016396523994811996
-0.00021356816968032413
-0.0002852168459601746
-0.0002686825360494398
-0.00017223239490348733
4.133577477683014e-06
0.0007261317769130989
0.0011201994964522765
0.0014095499198901345
0.0014701757228961615
0.0012497182574196988
0.0008666734111543443
0.0004340256351567857
0.00016672095826657444
6.751509880216611e-05
2.6179324025329308e-05
-2.342360570687485e-05
-8.680512703135793e-05
-0.00014191949340047367
-0.00016947667658503157
-0.0001777438315403989
-0.00018601098649576628
-0.00020254529640650095
-0.0002218353246356915
-0.0002190796063172357
-0.00020530101472495681
-0.0001997895780880452
-0.0002108124513618684
-0.00021632388799877996
-0.0002080567330434125
-0.00019427814145113364
-0.00018601098649576628
-0.00019152242313267784
-0.00020254529640650095
-0.0001997895780880452
-0.00018876670481422206
-0.0001777438315403989
-0.0001777438315403989
-0.00018601098649576628
-0.00018325526817731047
-0.00017498811322194308
-0.0001612095216296642
-0.00015294236667429682
-0.0001612095216296642
-0.00016672095826657574
-0.0001584538033112084
-0.00014467521171892948
-0.0001364080567635621
-0.00014467521171892948
-0.00014743093003738526
-0.0001364080567635621
-0.0001198737468528274
-0.00011160659189746003
-0.00012538518348973897
-0.0001336523384451063
-0.00013089662012665053
-0.0001226294651712832
-0.0001171180285343716
-0.00012814090180819475
-0.00014191949340047367
-0.00014467521171892948
-0.0001364080567635621
-0.00013089662012665053
-0.00014191949340047367
-0.00015569808499275262
-0.0001584538033112084
-0.00015294236667429682
-0.00014191949340047367
-0.00014743093003738526
-0.00014743093003738526
-0.0001364080567635621
-0.0001226294651712832
-0.0001198737468528274
-0.0001336523384451063
-0.0001364080567635621
-0.0001336523384451063
-0.00012538518348973897
-0.0001198737468528274
-0.0001336523384451063
-0.00014191949340047367
-0.0001391637750820179
-0.00012538518348973897
-0.0001198737468528274
-0.0001336523384451063
-0.0001364080567635621
-0.00013089662012665053
-0.0001226294651712832
-0.00010885087357900426
-0.00011436231021591582
-0.00012814090180819475
-0.00012538518348973897
-0.00011436231021591582
-0.00010333943694209268
-0.00010609515526054846
-0.0001171180285343716
-0.0001171180285343716
-0.00010609515526054846
-9.507228198672531e-05
-9.78280003051811e-05
-0.00011160659189746003
-0.0001198737468528274
-0.00011436231021591582
-0.00010333943694209268
-0.00010058371862363688
-0.00011160659189746003
-0.0001171180285343716
-0.00010609515526054846
-9.507228198672531e-05
-9.507228198672531e-05
-0.00010609515526054846
-0.0001171180285343716
-0.0001198737468528274
-0.00011436231021591582
-0.00010609515526054846
-0.00011436231021591582
-0.0001226294651712832
-0.0001171180285343716
-9.78280003051811e-05
-7.85379720759906e-05
-7.85379720759906e-05
-8.404940871290214e-05
-7.85379720759906e-05
-7.302653543907902e-05
-6.751509880216745e-05
-7.302653543907902e-05
-8.404940871290214e-05
-9.507228198672531e-05
-9.507228198672531e-05
-9.507228198672531e-05
-0.00010885087357900426
-0.0001364080567635621
-0.00012814090180819475
-0.0001226294651712832
-0.00012814090180819475
-0.0001391637750820179
-0.00014743093003738526
-0.00014743093003738526
-0.00014191949340047367
-0.0001391637750820179
-0.000150186648355841
-0.00015294236667429682
-0.00015294236667429682
-0.00014467521171892948
-0.0001336523384451063
-0.0001364080567635621
-0.00016396523994811996
-0.00021632388799877996
-0.00026592681773098404
-0.00024112535286488197
-0.0001612095216296642
-1.240073243305171e-05
0.00026592681773098274
0.000679284565499351
0.0010788637216754397
0.0013516798352025624
0.0013957713282978553
0.0011725581445029367
0.0008280933546959632
0.0004340256351567857
0.00016396523994811866
3.9957915617608246e-05
-1.240073243305171e-05
-4.2713633936065354e-05
-7.302653543907902e-05
-0.00011160659189746003
-0.00014743093003738526
-0.00017223239490348733
-0.00018325526817731047
-0.00018049954985885472
-0.00017498811322194308
-0.00018325526817731047
-0.00019427814145113364
-0.00018876670481422206
-0.00018049954985885472
-0.00017223239490348733
-0.00018049954985885472
-0.00018876670481422206
-0.00018325526817731047
-0.00017498811322194308
-0.00016396523994811996
-0.00016396523994811996
-0.00017498811322194308
-0.0001777438315403989
-0.0001612095216296642
-0.00014743093003738526
-0.00014467521171892948
-0.000150186648355841
-0.00015294236667429682
-0.00014191949340047367
-0.00012538518348973897
-0.00012538518348973897
-0.0001364080567635621
-0.00012814090180819475
-0.00010885087357900426
-0.00010058371862363688
-0.00010885087357900426
-0.00011160659189746003
-0.00010609515526054846
-9.231656366826955e-05
-8.680512703135793e-05
-9.231656366826955e-05
-0.00010333943694209268
-0.00010058371862363688
-9.231656366826955e-05
-8.680512703135793e-05
-9.507228198672531e-05
-0.00010885087357900426
-0.00011436231021591582
-0.00011160659189746003
-0.00010058371862363688
-0.00010609515526054846
-0.0001198737468528274
-0.0001226294651712832
-0.0001171180285343716
-0.00010609515526054846
-0.00010333943694209268
-0.00011436231021591582
-0.0001198737468528274
-0.00011160659189746003
-9.507228198672531e-05
-8.956084534981374e-05
-0.00010058371862363688
-0.00011160659189746003
-0.00011160659189746003
-0.00010609515526054846
-0.00010058371862363688
-0.00011160659189746003
-0.0001226294651712832
-0.0001226294651712832
-0.00011436231021591582
-0.00010885087357900426
-0.00011436231021591582
-0.00012538518348973897
-0.0001226294651712832
-0.00011436231021591582
-0.00010609515526054846
-0.00010609515526054846
-0.00011436231021591582
-0.0001171180285343716
-0.00010885087357900426
-9.507228198672531e-05
-9.507228198672531e-05
-0.00010885087357900426
-0.00010885087357900426
-0.00010058371862363688
-9.231656366826955e-05
-8.956084534981374e-05
-9.78280003051811e-05
-0.00010609515526054846
-0.00010333943694209268
-9.231656366826955e-05
-8.680512703135793e-05
-0.00010058371862363688
-0.00010885087357900426
-9.78280003051811e-05
-8.956084534981374e-05
-0.00010058371862363688
-0.00010885087357900426
-0.00010609515526054846
-9.231656366826955e-05
-8.129369039444639e-05
-8.404940871290214e-05
-9.78280003051811e-05
-0.00010058371862363688
-9.78280003051811e-05
-8.404940871290214e-05
-7.027081712062322e-05
-7.302653543907902e-05
-7.027081712062322e-05
-5.6492225528344285e-05
-4.2713633936065354e-05
-4.2713633936065354e-05
-5.9247943846800084e-05
-6.475938048371164e-05
-6.200366216525588e-05
-5.3736507209888505e-05
-5.9247943846800084e-05
-8.129369039444639e-05
-0.00010609515526054846
-0.00010885087357900426
-0.00010058371862363688
-9.231656366826955e-05
-0.00010885087357900426
-0.00012538518348973897
-0.00013089662012665053
-0.0001171180285343716
-0.00011436231021591582
-0.0001226294651712832
-0.00013089662012665053
-0.00012814090180819475
-0.0001198737468528274
-0.00011160659189746003
-0.00011436231021591582
-0.00012538518348973897
-0.00012538518348973897
-0.00012814090180819475
-0.0001584538033112084
-0.0002108124513618684
-0.00022459104295414727
-0.00016672095826657574
-4.2713633936065354e-05
0.0001832552681773092
0.0005222086213473709
0.0008804520027466232
0.0011615352712291134
0.0012800311589227123
0.0011450009613183788
0.0008501391012436096
0.0004808728465705341
0.0001694766765850302
2.8935042343785094e-05
-1.240073243305171e-05
-4.2713633936065354e-05
-8.404940871290214e-05
-0.00012538518348973897
-0.00014743093003738526
-0.000150186648355841
-0.00016672095826657574
-0.00018325526817731047
-0.00018601098649576628
-0.00017498811322194308
-0.0001584538033112084
-0.0001612095216296642
-0.00017498811322194308
-0.00018049954985885472
-0.00016947667658503157
-0.00015294236667429682
-0.00015294236667429682
-0.00016396523994811996
-0.00016947667658503157
-0.0001612095216296642
-0.00014743093003738526
-0.00014191949340047367
-0.000150186648355841
-0.00015294236667429682
-0.00014743093003738526
-0.0001336523384451063
-0.00012814090180819475
-0.0001391637750820179
-0.00014743093003738526
-0.0001391637750820179
-0.0001226294651712832
-0.00010885087357900426
-0.00011436231021591582
-0.0001198737468528274
-0.0001198737468528274
-0.00010333943694209268
-9.231656366826955e-05
-9.507228198672531e-05
-0.00010058371862363688
-0.00010058371862363688
-9.507228198672531e-05
-8.129369039444639e-05
-8.129369039444639e-05
-9.507228198672531e-05
-0.00010609515526054846
-0.00010333943694209268
-8.956084534981374e-05
-8.956084534981374e-05
-0.00010333943694209268
-0.00010885087357900426
-0.00010058371862363688
-8.680512703135793e-05
-8.129369039444639e-05
-9.231656366826955e-05
-0.00010058371862363688
-9.507228198672531e-05
-8.129369039444639e-05
-7.302653543907902e-05
-8.404940871290214e-05
-0.00010058371862363688
-9.507228198672531e-05
-8.680512703135793e-05
-7.85379720759906e-05
-8.404940871290214e-05
-9.507228198672531e-05
-9.78280003051811e-05
-9.231656366826955e-05
-8.680512703135793e-05
-0.00010058371862363688
-0.00010058371862363688
-9.507228198672531e-05
-8.129369039444639e-05
-7.85379720759906e-05
-8.956084534981374e-05
-9.231656366826955e-05
-8.129369039444639e-05
-7.027081712062322e-05
-7.027081712062322e-05
-8.129369039444639e-05
-8.956084534981374e-05
-8.680512703135793e-05
-7.302653543907902e-05
-6.200366216525588e-05
-7.302653543907902e-05
-8.680512703135793e-05
-8.404940871290214e-05
-7.027081712062322e-05
-5.9247943846800084e-05
-6.751509880216745e-05
-7.57822537575348e-05
-7.85379720759906e-05
-7.027081712062322e-05
-6.200366216525588e-05
-6.200366216525588e-05
-7.302653543907902e-05
-7.85379720759906e-05
-7.302653543907902e-05
-6.751509880216745e-05
-6.475938048371164e-05
-7.302653543907902e-05
-7.302653543907902e-05
-6.475938048371164e-05
-5.6492225528344285e-05
-5.3736507209888505e-05
-7.027081712062322e-05
-7.57822537575348e-05
-7.027081712062322e-05
-5.3736507209888505e-05
-3.720219729915378e-05
-3.4446478980697995e-05
-3.720219729915378e-05
-2.6179324025330647e-05
-1.7912169069963278e-05
-1.7912169069963278e-05
-2.6179324025330647e-05
-3.4446478980697995e-05
-3.169076066224221e-05
-3.169076066224221e-05
-3.4446478980697995e-05
-5.3736507209888505e-05
-7.85379720759906e-05
-8.404940871290214e-05
-7.302653543907902e-05
-6.475938048371164e-05
-7.57822537575348e-05
-9.507228198672531e-05
-9.78280003051811e-05
-8.956084534981374e-05
-8.404940871290214e-05
-0.00010058371862363688
-0.00010609515526054846
-9.78280003051811e-05
-8.404940871290214e-05
-8.129369039444639e-05
-9.507228198672531e-05
-0.00010058371862363688
-0.0001171180285343716
-0.0001612095216296642
-0.00018601098649576628
-0.00014191949340047367
-5.6492225528344285e-05
0.00011987374685282605
0.00042851419851987416
0.0008088033264667726
0.0011229552147707324
0.001321366933699549
0.0012827868772411677
0.0010320165102616916
0.0006847960021362622
0.00033206405737392166
0.00012262946517128183
3.720219729915245e-05
9.64501411459459e-06
-1.240073243305171e-05
-5.098078889143272e-05
-9.507228198672531e-05
-0.0001171180285343716
-0.0001226294651712832
-0.0001226294651712832
-0.00012814090180819475
-0.00014191949340047367
-0.000150186648355841
-0.00014191949340047367
-0.00013089662012665053
-0.00012814090180819475
-0.00014191949340047367
-0.00014743093003738526
-0.0001364080567635621
-0.0001171180285343716
-0.00011160659189746003
-0.0001226294651712832
-0.00012538518348973897
-0.0001198737468528274
-0.00010885087357900426
-9.507228198672531e-05
-9.78280003051811e-05
-0.00010885087357900426
-0.00010333943694209268
-9.507228198672531e-05
-8.404940871290214e-05
-8.404940871290214e-05
-8.956084534981374e-05
-8.680512703135793e-05
-7.57822537575348e-05
-5.9247943846800084e-05
-5.9247943846800084e-05
-6.751509880216745e-05
-6.751509880216745e-05
-5.9247943846800084e-05
-4.8225070572976926e-05
-4.2713633936065354e-05
-5.6492225528344285e-05
-4.8225070572976926e-05
-3.720219729915378e-05
-3.4446478980697995e-05
-5.098078889143272e-05
-5.6492225528344285e-05
-5.098078889143272e-05
-4.2713633936065354e-05
-3.720219729915378e-05
-4.5469352254521147e-05
-5.9247943846800084e-05
-5.3736507209888505e-05
-3.995791561760957e-05
-2.8935042343786426e-05
-3.169076066224221e-05
-4.5469352254521147e-05
-4.2713633936065354e-05
-3.169076066224221e-05
-2.066788738841907e-05
-2.342360570687485e-05
-4.2713633936065354e-05
-4.8225070572976926e-05
-3.995791561760957e-05
-2.8935042343786426e-05
-3.4446478980697995e-05
-4.5469352254521147e-05
-5.098078889143272e-05
-4.2713633936065354e-05
-3.4446478980697995e-05
-3.4446478980697995e-05
-4.5469352254521147e-05
-5.098078889143272e-05
-4.5469352254521147e-05
-3.4446478980697995e-05
-2.8935042343786426e-05
-3.995791561760957e-05
-4.8225070572976926e-05
-4.2713633936065354e-05
-3.4446478980697995e-05
-2.6179324025330647e-05
-2.8935042343786426e-05
-3.995791561760957e-05
-3.720219729915378e-05
-2.8935042343786426e-05
-2.342360570687485e-05
-3.169076066224221e-05
-4.5469352254521147e-05
-4.5469352254521147e-05
-3.995791561760957e-05
-3.169076066224221e-05
-3.169076066224221e-05
-4.2713633936065354e-05
-4.8225070572976926e-05
-4.2713633936065354e-05
-3.4446478980697995e-05
-3.4446478980697995e-05
-4.8225070572976926e-05
-5.6492225528344285e-05
-5.098078889143272e-05
-4.5469352254521147e-05
-4.8225070572976926e-05
-5.9247943846800084e-05
-6.200366216525588e-05
-5.098078889143272e-05
-3.995791561760957e-05
-4.8225070572976926e-05
-5.6492225528344285e-05
-5.3736507209888505e-05
-3.995791561760957e-05
-3.169076066224221e-05
-3.995791561760957e-05
-5.3736507209888505e-05
-5.6492225528344285e-05
-4.2713633936065354e-05
-2.066788738841907e-05
-9.64501411459592e-06
-1.240073243305171e-05
-1.240073243305171e-05
1.3778591592272275e-06
9.64501411459459e-06
4.133577477683014e-06
-6.889295796140132e-06
-1.240073243305171e-05
-1.240073243305171e-05
-9.64501411459592e-06
-1.7912169069963278e-05
-4.2713633936065354e-05
-5.9247943846800084e-05
-5.9247943846800084e-05
-5.098078889143272e-05
-4.5469352254521147e-05
-6.200366216525588e-05
-7.85379720759906e-05
-7.57822537575348e-05
-6.475938048371164e-05
-6.475938048371164e-05
-7.57822537575348e-05
-8.404940871290214e-05
-7.85379720759906e-05
-7.027081712062322e-05
-6.200366216525588e-05
-6.200366216525588e-05
-7.027081712062322e-05
-7.85379720759906e-05
-0.00010333943694209268
-0.00015294236667429682
-0.00016947667658503157
-0.00011160659189746003
-4.133577477684346e-06
0.00020254529640649968
0.0005442543678950173
0.0009328106507972832
0.001244206820782787
0.0014150613565270462
0.0013268783703364606
0.001037527946898603
0.0006489716639963371
0.000301751155870908
0.00012814090180819342
5.9247943846798756e-05
3.444647898069667e-05
6.8892957961388014e-06
-4.8225070572976926e-05
-9.78280003051811e-05
-0.00012538518348973897
-0.00012814090180819475
-0.0001391637750820179
-0.00015294236667429682
-0.00015569808499275262
-0.00014743093003738526
-0.0001364080567635621
-0.0001391637750820179
-0.000150186648355841
-0.00015294236667429682
-0.00014467521171892948
-0.00012814090180819475
-0.00013089662012665053
-0.00014191949340047367
-0.00014467521171892948
-0.0001336523384451063
-0.00011436231021591582
-0.00010885087357900426
-0.00011436231021591582
-0.0001171180285343716
-0.00011436231021591582
-0.00010058371862363688
-9.507228198672531e-05
-0.00010058371862363688
-0.00010333943694209268
-9.231656366826955e-05
-7.85379720759906e-05
-7.027081712062322e-05
-7.85379720759906e-05
-8.404940871290214e-05
-8.129369039444639e-05
-6.751509880216745e-05
-5.6492225528344285e-05
-6.200366216525588e-05
-7.302653543907902e-05
-7.302653543907902e-05
-6.751509880216745e-05
-5.6492225528344285e-05
-5.6492225528344285e-05
-6.751509880216745e-05
-6.751509880216745e-05
-5.9247943846800084e-05
-4.2713633936065354e-05
-3.995791561760957e-05
-5.6492225528344285e-05
-6.475938048371164e-05
-5.6492225528344285e-05
-4.2713633936065354e-05
-3.720219729915378e-05
-4.5469352254521147e-05
-5.6492225528344285e-05
-5.3736507209888505e-05
-3.995791561760957e-05
-3.720219729915378e-05
-5.098078889143272e-05
-6.475938048371164e-05
-6.475938048371164e-05
-5.6492225528344285e-05
-5.6492225528344285e-05
-6.751509880216745e-05
-8.404940871290214e-05
-8.129369039444639e-05
-6.751509880216745e-05
-7.57822537575348e-05
-8.956084534981374e-05
-8.956084534981374e-05
-8.129369039444639e-05
-7.302653543907902e-05
-7.85379720759906e-05
-8.956084534981374e-05
-9.507228198672531e-05
-8.680512703135793e-05
-7.302653543907902e-05
-7.302653543907902e-05
-8.680512703135793e-05
-9.507228198672531e-05
-8.680512703135793e-05
-7.302653543907902e-05
-6.751509880216745e-05
-7.57822537575348e-05
-8.680512703135793e-05
-8.404940871290214e-05
-7.57822537575348e-05
-7.302653543907902e-05
-8.129369039444639e-05
-8.956084534981374e-05
-8.680512703135793e-05
-7.85379720759906e-05
-7.302653543907902e-05
-8.404940871290214e-05
-9.78280003051811e-05
-9.507228198672531e-05
-8.404940871290214e-05
-7.57822537575348e-05
-8.404940871290214e-05
-0.00010333943694209268
-0.00010609515526054846
-0.00010058371862363688
-9.231656366826955e-05
-8.956084534981374e-05
-0.00010058371862363688
-0.00010333943694209268
-9.78280003051811e-05
-8.680512703135793e-05
-8.404940871290214e-05
-0.00010058371862363688
-0.00011160659189746003
-0.00010333943694209268
-8.404940871290214e-05
-7.027081712062322e-05
-6.751509880216745e-05
-6.751509880216745e-05
-5.3736507209888505e-05
-3.995791561760957e-05
-3.720219729915378e-05
-5.098078889143272e-05
-6.200366216525588e-05
-5.9247943846800084e-05
-5.6492225528344285e-05
-5.6492225528344285e-05
-7.302653543907902e-05
-9.78280003051811e-05
-0.00011160659189746003
-0.00010609515526054846
-0.00010058371862363688
-0.00011436231021591582
-0.0001198737468528274
-0.00011160659189746003
-0.00010333943694209268
-0.00010058371862363688
-0.00011436231021591582
-0.0001198737468528274
-0.0001171180285343716
-0.00010333943694209268
-9.78280003051811e-05
-0.00010333943694209268
-0.00011160659189746003
-0.0001226294651712832
-0.00016396523994811996
-0.0002108124513618684
-0.00019427814145113364
-0.00011160659189746003
3.9957915617608246e-05
0.00031001831082627527
0.0006985745937285414
0.0010733522850385282
0.0013406569619287395
0.0014095499198901345
0.0012138939192797731
0.0008666734111543443
0.0004726056916151668
0.00019978957808804387
8.129369039444505e-05
2.8935042343785094e-05
4.133577477683014e-06
-3.720219729915378e-05
-9.231656366826955e-05
-0.00013089662012665053
-0.00014467521171892948
-0.00014743093003738526
-0.00015294236667429682
-0.00016672095826657574
-0.0001777438315403989
-0.00017498811322194308
-0.00016396523994811996
-0.00015569808499275262
-0.00016396523994811996
-0.00017498811322194308
-0.00017223239490348733
-0.00016396523994811996
-0.00015569808499275262
-0.00016396523994811996
-0.00016947667658503157
-0.00016396523994811996
-0.00015294236667429682
-0.00014191949340047367
-0.00014743093003738526
-0.0001612095216296642
-0.0001584538033112084
-0.00014467521171892948
-0.00013089662012665053
-0.00012814090180819475
-0.0001364080567635621
-0.0001364080567635621
-0.0001226294651712832
-0.00010885087357900426
-0.00011160659189746003
-0.0001171180285343716
-0.00010333943694209268
-8.680512703135793e-05
-8.129369039444639e-05
-8.956084534981374e-05
-9.231656366826955e-05
-8.404940871290214e-05
-7.302653543907902e-05
-6.751509880216745e-05
-7.85379720759906e-05
-8.680512703135793e-05
-8.404940871290214e-05
-7.57822537575348e-05
-6.475938048371164e-05
-7.302653543907902e-05
-8.404940871290214e-05
-8.129369039444639e-05
-7.027081712062322e-05
-5.3736507209888505e-05
-5.6492225528344285e-05
-7.027081712062322e-05
-7.027081712062322e-05
-6.200366216525588e-05
-5.3736507209888505e-05
-5.6492225528344285e-05
-7.027081712062322e-05
-7.85379720759906e-05
-7.302653543907902e-05
-6.200366216525588e-05
-6.200366216525588e-05
-8.129369039444639e-05
-9.231656366826955e-05
-8.680512703135793e-05
-7.302653543907902e-05
-7.302653543907902e-05
-8.680512703135793e-05
-9.231656366826955e-05
-8.680512703135793e-05
-7.57822537575348e-05
-6.751509880216745e-05
-7.57822537575348e-05
-8.680512703135793e-05
-8.680512703135793e-05
-7.57822537575348e-05
-6.751509880216745e-05
-7.027081712062322e-05
-7.57822537575348e-05
-7.57822537575348e-05
-7.027081712062322e-05
-5.6492225528344285e-05
-5.9247943846800084e-05
-7.57822537575348e-05
-8.129369039444639e-05
-7.57822537575348e-05
-6.475938048371164e-05
-6.751509880216745e-05
-7.85379720759906e-05
-8.680512703135793e-05
-8.680512703135793e-05
-7.85379720759906e-05
-7.85379720759906e-05
-0.00010058371862363688
-0.00010058371862363688
-9.231656366826955e-05
-8.956084534981374e-05
-0.00010058371862363688
-0.00010885087357900426
-0.00010333943694209268
-9.78280003051811e-05
-8.956084534981374e-05
-9.231656366826955e-05
-0.00010609515526054846
-0.00010609515526054846
-9.507228198672531e-05
-9.231656366826955e-05
-9.78280003051811e-05
-0.00010333943694209268
-9.231656366826955e-05
-7.57822537575348e-05
-5.9247943846800084e-05
-4.8225070572976926e-05
-5.3736507209888505e-05
-5.6492225528344285e-05
-4.8225070572976926e-05
-3.995791561760957e-05
-3.995791561760957e-05
-5.9247943846800084e-05
-7.85379720759906e-05
-8.404940871290214e-05
-8.129369039444639e-05
-8.956084534981374e-05
-0.00010609515526054846
-0.00011160659189746003
-0.00011160659189746003
-0.00010609515526054846
-0.00010333943694209268
-0.00011436231021591582
-0.00012814090180819475
-0.00013089662012665053
-0.0001226294651712832
-0.00011160659189746003
-0.0001171180285343716
-0.00012814090180819475
-0.00013089662012665053
-0.0001171180285343716
-0.00010058371862363688
-0.00010885087357900426
-0.00015294236667429682
-0.00022459104295414727
-0.00024939250782024937
-0.0001777438315403989
-5.9247943846800084e-05
0.00013640805676356078
0.0004808728465705341
0.0009162763408865484
0.0012910540321965354
0.0015032443427176307
0.001423328511482413
0.0011174437781338207
0.0007151089036392759
0.00034584264896620056
0.00015845380331120705
6.751509880216611e-05
-2.6179324025330647e-05
-6.475938048371164e-05
-0.00010333943694209268
-0.00014191949340047367
-0.00017498811322194308
-0.00018325526817731047
-0.0001777438315403989
-0.00016947667658503157
-0.00017498811322194308
-0.00019152242313267784
-0.00019427814145113364
-0.00018325526817731047
-0.00016947667658503157
-0.00016396523994811996
-0.00017498811322194308
-0.00017498811322194308
-0.00016672095826657574
-0.00015294236667429682
-0.000150186648355841
-0.0001612095216296642
-0.00016672095826657574
-0.00015569808499275262
-0.0001391637750820179
-0.0001336523384451063
-0.00014191949340047367
-0.00014743093003738526
-0.00014191949340047367
-0.00012538518348973897
-0.00011436231021591582
-0.0001171180285343716
-0.00012538518348973897
-0.0001171180285343716
-9.78280003051811e-05
-8.680512703135793e-05
-9.507228198672531e-05
-0.00010058371862363688
-0.00010058371862363688
-8.956084534981374e-05
-7.85379720759906e-05
-8.129369039444639e-05
-9.231656366826955e-05
-9.231656366826955e-05
-8.129369039444639e-05
-7.302653543907902e-05
-7.302653543907902e-05
-8.956084534981374e-05
-9.507228198672531e-05
-8.956084534981374e-05
-7.57822537575348e-05
-7.027081712062322e-05
-7.85379720759906e-05
-8.129369039444639e-05
-7.85379720759906e-05
-6.475938048371164e-05
-5.3736507209888505e-05
-6.200366216525588e-05
-7.027081712062322e-05
-6.200366216525588e-05
-5.3736507209888505e-05
-5.098078889143272e-05
-6.475938048371164e-05
-7.85379720759906e-05
-6.751509880216745e-05
-6.475938048371164e-05
-7.302653543907902e-05
-8.680512703135793e-05
-8.680512703135793e-05
-7.85379720759906e-05
-6.751509880216745e-05
-6.751509880216745e-05
-7.57822537575348e-05
-7.85379720759906e-05
-7.027081712062322e-05
-5.6492225528344285e-05
-5.9247943846800084e-05
-7.027081712062322e-05
-7.302653543907902e-05
-6.475938048371164e-05
-5.098078889143272e-05
-4.8225070572976926e-05
-6.475938048371164e-05
-7.027081712062322e-05
-6.751509880216745e-05
-5.6492225528344285e-05
-5.098078889143272e-05
-6.200366216525588e-05
-7.302653543907902e-05
-7.302653543907902e-05
-6.475938048371164e-05
-5.9247943846800084e-05
-6.751509880216745e-05
-7.57822537575348e-05
-7.57822537575348e-05
-7.302653543907902e-05
-6.751509880216745e-05
-7.302653543907902e-05
-8.680512703135793e-05
-8.956084534981374e-05
-8.129369039444639e-05
-7.027081712062322e-05
-7.027081712062322e-05
-8.404940871290214e-05
-8.956084534981374e-05
-8.680512703135793e-05
-7.57822537575348e-05
-7.027081712062322e-05
-7.302653543907902e-05
-6.475938048371164e-05
-5.098078889143272e-05
-3.169076066224221e-05
-2.066788738841907e-05
-3.4446478980697995e-05
-4.5469352254521147e-05
-3.995791561760957e-05
-2.8935042343786426e-05
-2.6179324025330647e-05
-4.2713633936065354e-05
-6.200366216525588e-05
-7.302653543907902e-05
-7.57822537575348e-05
-7.57822537575348e-05
-7.85379720759906e-05
-9.507228198672531e-05
-0.00010333943694209268
-9.78280003051811e-05
-9.507228198672531e-05
-0.00011160659189746003
-0.00011436231021591582
-0.00010885087357900426
-0.00010058371862363688
-9.78280003051811e-05
-0.00010885087357900426
-0.00011160659189746003
-0.00010058371862363688
-9.78280003051811e-05
-0.00012814090180819475
-0.00020530101472495681
-0.00024112535286488197
-0.00016947667658503157
-3.995791561760957e-05
0.00018049954985885336
0.0005359872129396498
0.0009548563973449294
0.0013075883421072702
0.0015087557793545424
0.0014288399481193247
0.0011119323414969095
0.0006903074387731741
0.0003182854657816428
0.00014743093003738393
8.129369039444505e-05
3.169076066224089e-05
-2.342360570687485e-05
-7.302653543907902e-05
-0.00010333943694209268
-0.00010885087357900426
-0.00012538518348973897
-0.000150186648355841
-0.0001584538033112084
-0.000150186648355841
-0.0001391637750820179
-0.0001391637750820179
-0.00014743093003738526
-0.000150186648355841
-0.00014467521171892948
-0.00013089662012665053
-0.0001226294651712832
-0.0001336523384451063
-0.00014191949340047367
-0.0001391637750820179
-0.00012814090180819475
-0.0001171180285343716
-0.0001226294651712832
-0.00012814090180819475
-0.0001226294651712832
-0.00010885087357900426
-9.78280003051811e-05
-0.00010609515526054846
-0.00011160659189746003
-0.00010885087357900426
-9.507228198672531e-05
-8.129369039444639e-05
-7.85379720759906e-05
-8.404940871290214e-05
-7.85379720759906e-05
-6.200366216525588e-05
-5.098078889143272e-05
-6.200366216525588e-05
-6.751509880216745e-05
-5.6492225528344285e-05
-3.995791561760957e-05
-3.720219729915378e-05
-5.098078889143272e-05
-6.200366216525588e-05
-5.6492225528344285e-05
-5.098078889143272e-05
-5.3736507209888505e-05
-6.475938048371164e-05
-7.57822537575348e-05
-7.302653543907902e-05
-6.475938048371164e-05
-5.9247943846800084e-05
-6.751509880216745e-05
-7.85379720759906e-05
-7.57822537575348e-05
-6.200366216525588e-05
-5.098078889143272e-05
-5.3736507209888505e-05
-6.475938048371164e-05
-6.200366216525588e-05
-5.6492225528344285e-05
-5.098078889143272e-05
-5.6492225528344285e-05
-7.027081712062322e-05
-7.302653543907902e-05
-6.751509880216745e-05
-5.9247943846800084e-05
-5.9247943846800084e-05
-7.57822537575348e-05
-7.57822537575348e-05
-7.027081712062322e-05
-6.475938048371164e-05
-5.6492225528344285e-05
-6.751509880216745e-05
-7.57822537575348e-05
-7.027081712062322e-05
-5.3736507209888505e-05
-4.5469352254521147e-05
-5.9247943846800084e-05
-7.302653543907902e-05
-7.027081712062322e-05
-5.9247943846800084e-05
-5.098078889143272e-05
-5.9247943846800084e-05
-6.475938048371164e-05
-6.200366216525588e-05
-5.6492225528344285e-05
-4.5469352254521147e-05
-5.098078889143272e-05
-6.475938048371164e-05
-6.475938048371164e-05
-5.6492225528344285e-05
-4.5469352254521147e-05
-5.098078889143272e-05
-6.475938048371164e-05
-7.027081712062322e-05
-6.475938048371164e-05
-5.3736507209888505e-05
-5.3736507209888505e-05
-6.751509880216745e-05
-6.200366216525588e-05
-5.098078889143272e-05
-4.8225070572976926e-05
-6.200366216525588e-05
-7.302653543907902e-05
-7.027081712062322e-05
-4.8225070572976926e-05
-2.8935042343786426e-05
-3.169076066224221e-05
-3.720219729915378e-05
-2.8935042343786426e-05
-1.7912169069963278e-05
-1.240073243305171e-05
-1.7912169069963278e-05
-2.6179324025330647e-05
-2.8935042343786426e-05
-2.8935042343786426e-05
-3.169076066224221e-05
-4.5469352254521147e-05
-7.027081712062322e-05
-7.85379720759906e-05
-7.302653543907902e-05
-6.475938048371164e-05
-7.027081712062322e-05
-8.404940871290214e-05
-9.231656366826955e-05
-8.680512703135793e-05
-7.85379720759906e-05
-7.57822537575348e-05
-8.956084534981374e-05
-9.78280003051811e-05
-9.231656366826955e-05
-7.85379720759906e-05
-7.57822537575348e-05
-8.129369039444639e-05
-9.507228198672531e-05
-0.00011436231021591582
-0.00015569808499275262
-0.0001777438315403989
-0.00014467521171892948
-6.200366216525588e-05
0.00011436231021591448
0.00042575848020141833
0.0008198261997405958
0.0011477566796368347
0.0013434126802471958
0.0012993211871519031
0.001051306538490882
0.0007095974670023644
0.0003568655222400236
0.00014743093003738393
6.200366216525454e-05
3.169076066224089e-05
9.64501411459459e-06
-2.8935042343786426e-05
-7.85379720759906e-05
-0.00010333943694209268
-0.00011160659189746003
-0.00010333943694209268
-0.00010333943694209268
-0.00011436231021591582
-0.00012538518348973897
-0.00011160659189746003
-0.00010058371862363688
-0.00011160659189746003
-0.0001226294651712832
-0.00011436231021591582
-0.00010058371862363688
-8.956084534981374e-05
-9.231656366826955e-05
-0.00010058371862363688
-0.00010058371862363688
-8.680512703135793e-05
-7.57822537575348e-05
-7.57822537575348e-05
-8.404940871290214e-05
-8.129369039444639e-05
-6.751509880216745e-05
-5.6492225528344285e-05
-5.6492225528344285e-05
-6.751509880216745e-05
-6.751509880216745e-05
-5.6492225528344285e-05
-3.995791561760957e-05
-3.169076066224221e-05
-4.2713633936065354e-05
-4.5469352254521147e-05
-3.169076066224221e-05
-1.5156450751507488e-05
-6.889295796140132e-06
-1.5156450751507488e-05
-2.066788738841907e-05
-1.5156450751507488e-05
-1.377859159228559e-06
4.133577477683014e-06
-6.889295796140132e-06
-2.066788738841907e-05
-2.342360570687485e-05
-1.7912169069963278e-05
-1.5156450751507488e-05
-2.066788738841907e-05
-3.720219729915378e-05
-4.5469352254521147e-05
-3.995791561760957e-05
-2.342360570687485e-05
-2.066788738841907e-05
-3.169076066224221e-05
-3.4446478980697995e-05
-2.8935042343786426e-05
-1.5156450751507488e-05
-1.7912169069963278e-05
-3.169076066224221e-05
-3.995791561760957e-05
-3.4446478980697995e-05
-2.342360570687485e-05
-1.7912169069963278e-05
-3.169076066224221e-05
-4.5469352254521147e-05
-4.2713633936065354e-05
-3.169076066224221e-05
-2.342360570687485e-05
-3.4446478980697995e-05
-4.8225070572976926e-05
-2.8935042343786426e-05
-2.342360570687485e-05
-3.169076066224221e-05
-4.2713633936065354e-05
-4.5469352254521147e-05
-3.4446478980697995e-05
-2.342360570687485e-05
-2.8935042343786426e-05
-3.995791561760957e-05
-4.2713633936065354e-05
-3.995791561760957e-05
-2.8935042343786426e-05
-2.342360570687485e-05
-3.4446478980697995e-05
-3.720219729915378e-05
-2.6179324025330647e-05
-1.240073243305171e-05
-9.64501411459592e-06
-2.066788738841907e-05
-2.8935042343786426e-05
-2.066788738841907e-05
-1.240073243305171e-05
-6.889295796140132e-06
-1.7912169069963278e-05
-2.342360570687485e-05
-1.5156450751507488e-05
1.3778591592272275e-06
6.8892957961388014e-06
4.133577477683014e-06
-9.64501411459592e-06
-1.240073243305171e-05
-1.377859159228559e-06
6.8892957961388014e-06
6.8892957961388014e-06
9.64501411459459e-06
1.5156450751506162e-05
2.8935042343785094e-05
4.82250705729756e-05
5.098078889143139e-05
3.444647898069667e-05
2.6179324025329308e-05
3.444647898069667e-05
3.9957915617608246e-05
3.169076066224089e-05
9.64501411459459e-06
-9.64501411459592e-06
-1.7912169069963278e-05
-1.240073243305171e-05
-9.64501411459592e-06
-2.8935042343786426e-05
-4.2713633936065354e-05
-4.5469352254521147e-05
-3.720219729915378e-05
-3.169076066224221e-05
-3.995791561760957e-05
-5.098078889143272e-05
-4.8225070572976926e-05
-3.720219729915378e-05
-2.8935042343786426e-05
-3.720219729915378e-05
-4.8225070572976926e-05
-4.5469352254521147e-05
-5.098078889143272e-05
-0.00010333943694209268
-0.00014467521171892948
-0.00010333943694209268
-6.889295796140132e-06
0.00017498811322194178
0.0004643385366597993
0.0008143147631036844
0.0011312223697260999
0.0013516798352025624
0.0013406569619287395
0.0010926423132677188
0.0007316432135500107
0.00037891126878767
0.0001832552681773092
0.00011160659189745871
7.853797207598924e-05
3.720219729915245e-05
-6.889295796140132e-06
-3.4446478980697995e-05
-4.5469352254521147e-05
-5.098078889143272e-05
-6.475938048371164e-05
-8.129369039444639e-05
-8.404940871290214e-05
-7.57822537575348e-05
-6.200366216525588e-05
-6.200366216525588e-05
-7.302653543907902e-05
-7.57822537575348e-05
-6.751509880216745e-05
-5.9247943846800084e-05
-5.9247943846800084e-05
-7.027081712062322e-05
-6.751509880216745e-05
-5.6492225528344285e-05
-4.5469352254521147e-05
-4.2713633936065354e-05
-5.6492225528344285e-05
-5.6492225528344285e-05
-5.098078889143272e-05
-3.995791561760957e-05
-3.169076066224221e-05
-3.995791561760957e-05
-4.5469352254521147e-05
-3.720219729915378e-05
-2.342360570687485e-05
-1.5156450751507488e-05
-2.342360570687485e-05
-2.342360570687485e-05
-1.5156450751507488e-05
-1.377859159228559e-06
1.2400732433050376e-05
9.64501411459459e-06
4.133577477683014e-06
9.64501411459459e-06
1.5156450751506162e-05
2.066788738841773e-05
1.5156450751506162e-05
1.3778591592272275e-06
-1.377859159228559e-06
4.133577477683014e-06
9.64501411459459e-06
1.3778591592272275e-06
-4.133577477684346e-06
4.133577477683014e-06
1.5156450751506162e-05
2.6179324025329308e-05
1.5156450751506162e-05
9.64501411459459e-06
1.5156450751506162e-05
2.6179324025329308e-05
2.6179324025329308e-05
1.7912169069961946e-05
6.8892957961388014e-06
9.64501411459459e-06
1.7912169069961946e-05
2.3423605706873515e-05
1.5156450751506162e-05
4.133577477683014e-06
1.3778591592272275e-06
9.64501411459459e-06
1.7912169069961946e-05
9.64501411459459e-06
-4.133577477684346e-06
-4.133577477684346e-06
6.8892957961388014e-06
1.5156450751506162e-05
1.2400732433050376e-05
-1.377859159228559e-06
-4.133577477684346e-06
1.3778591592272275e-06
1.2400732433050376e-05
9.64501411459459e-06
-6.889295796140132e-06
-9.64501411459592e-06
-4.133577477684346e-06
6.8892957961388014e-06
6.8892957961388014e-06
-9.64501411459592e-06
-1.5156450751507488e-05
-6.889295796140132e-06
6.8892957961388014e-06
6.8892957961388014e-06
-6.889295796140132e-06
-1.7912169069963278e-05
-1.5156450751507488e-05
-4.133577477684346e-06
4.133577477683014e-06
-4.133577477684346e-06
-1.7912169069963278e-05
-1.5156450751507488e-05
-9.64501411459592e-06
-1.377859159228559e-06
-4.133577477684346e-06
-9.64501411459592e-06
-6.889295796140132e-06
6.8892957961388014e-06
2.066788738841773e-05
1.5156450751506162e-05
-1.377859159228559e-06
-1.240073243305171e-05
-9.64501411459592e-06
9.64501411459459e-06
2.3423605706873515e-05
2.3423605706873515e-05
3.169076066224089e-05
4.271363393606403e-05
4.82250705729756e-05
3.9957915617608246e-05
3.169076066224089e-05
3.169076066224089e-05
3.444647898069667e-05
2.8935042343785094e-05
6.8892957961388014e-06
-1.240073243305171e-05
-1.7912169069963278e-05
-1.240073243305171e-05
-1.377859159228559e-06
-1.240073243305171e-05
-3.169076066224221e-05
-3.720219729915378e-05
-3.169076066224221e-05
-2.8935042343786426e-05
-3.4446478980697995e-05
-4.5469352254521147e-05
-4.8225070572976926e-05
-3.720219729915378e-05
-2.8935042343786426e-05
-2.8935042343786426e-05
-4.2713633936065354e-05
-5.3736507209888505e-05
-7.57822537575348e-05
-0.0001226294651712832
-0.00014467521171892948
-9.78280003051811e-05
-4.133577477684346e-06
0.00018601098649576498
0.0005056743114366363
0.0008914748760204465
0.001205626764324406
0.0013875041733424878
0.001318611215381093
0.0010568179751277937
0.0006958188754100854
0.0003485983672846564
0.0001694766765850302
9.507228198672396e-05
6.751509880216611e-05
4.271363393606403e-05
-6.889295796140132e-06
-5.6492225528344285e-05
-7.85379720759906e-05
-8.129369039444639e-05
-7.57822537575348e-05
-8.129369039444639e-05
-0.00010058371862363688
-0.00010885087357900426
-0.00010333943694209268
-9.231656366826955e-05
-8.956084534981374e-05
-0.00010333943694209268
-0.00010885087357900426
-0.00010333943694209268
-8.680512703135793e-05
-8.129369039444639e-05
-0.00010058371862363688
-9.78280003051811e-05
-8.129369039444639e-05
-7.027081712062322e-05
-7.85379720759906e-05
-8.680512703135793e-05
-8.129369039444639e-05
-6.475938048371164e-05
-5.098078889143272e-05
-5.098078889143272e-05
-6.475938048371164e-05
-6.200366216525588e-05
-4.5469352254521147e-05
-2.8935042343786426e-05
-2.8935042343786426e-05
-4.2713633936065354e-05
-4.5469352254521147e-05
-3.4446478980697995e-05
-2.066788738841907e-05
-1.7912169069963278e-05
-3.169076066224221e-05
-3.4446478980697995e-05
-2.8935042343786426e-05
-1.5156450751507488e-05
-6.889295796140132e-06
-1.7912169069963278e-05
-2.066788738841907e-05
-1.240073243305171e-05
4.133577477683014e-06
9.64501411459459e-06
-4.133577477684346e-06
-1.240073243305171e-05
-1.377859159228559e-06
1.2400732433050376e-05
2.6179324025329308e-05
1.7912169069961946e-05
4.133577477683014e-06
4.133577477683014e-06
1.5156450751506162e-05
2.066788738841773e-05
9.64501411459459e-06
-9.64501411459592e-06
-1.240073243305171e-05
-4.133577477684346e-06
1.3778591592272275e-06
-4.133577477684346e-06
-2.066788738841907e-05
-2.8935042343786426e-05
-2.342360570687485e-05
-1.240073243305171e-05
-1.240073243305171e-05
-2.6179324025330647e-05
-3.4446478980697995e-05
-2.8935042343786426e-05
-1.7912169069963278e-05
-1.5156450751507488e-05
-2.342360570687485e-05
-3.4446478980697995e-05
-3.169076066224221e-05
-2.342360570687485e-05
-2.066788738841907e-05
-2.8935042343786426e-05
-3.169076066224221e-05
-2.6179324025330647e-05
-1.7912169069963278e-05
-2.6179324025330647e-05
-3.169076066224221e-05
-3.4446478980697995e-05
-2.342360570687485e-05
-1.5156450751507488e-05
-2.342360570687485e-05
-3.995791561760957e-05
-4.8225070572976926e-05
-3.995791561760957e-05
-2.8935042343786426e-05
-3.4446478980697995e-05
-4.5469352254521147e-05
-4.8225070572976926e-05
-4.2713633936065354e-05
-3.169076066224221e-05
-2.8935042343786426e-05
-3.995791561760957e-05
-4.5469352254521147e-05
-4.2713633936065354e-05
-3.4446478980697995e-05
-3.4446478980697995e-05
-5.098078889143272e-05
-5.9247943846800084e-05
-5.3736507209888505e-05
-3.169076066224221e-05
-1.5156450751507488e-05
-1.5156450751507488e-05
-1.7912169069963278e-05
-1.240073243305171e-05
-6.889295796140132e-06
-4.133577477684346e-06
-9.64501411459592e-06
-2.342360570687485e-05
-3.169076066224221e-05
-3.169076066224221e-05
-3.720219729915378e-05
-5.098078889143272e-05
-7.027081712062322e-05
-7.57822537575348e-05
-6.751509880216745e-05
-6.751509880216745e-05
-7.302653543907902e-05
-8.404940871290214e-05
-8.956084534981374e-05
-8.404940871290214e-05
-7.85379720759906e-05
-7.85379720759906e-05
-9.231656366826955e-05
-9.78280003051811e-05
-8.956084534981374e-05
-7.85379720759906e-05
-6.751509880216745e-05
-7.57822537575348e-05
-0.00010058371862363688
-0.000150186648355841
-0.00019427814145113364
-0.00015569808499275262
-6.751509880216745e-05
7.02708171206219e-05
0.0007288874952315547
0.0011064209048599978
0.0013737255817502093
0.0014123056382085901
0.0011918481727321271
0.0008446276646066979
0.000469849973296711
0.00022734676127260172
0.00011711802853437029
5.9247943846798756e-05
2.3423605706873515e-05
-1.240073243305171e-05
-5.6492225528344285e-05
-0.00010333943694209268
-0.00013089662012665053
-0.00014191949340047367
-0.0001391637750820179
-0.0001336523384451063
-0.00014743093003738526
-0.00015294236667429682
-0.000150186648355841
-0.0001364080567635621
-0.0001336523384451063
-0.00014191949340047367
-0.000150186648355841
-0.00014467521171892948
-0.0001336523384451063
-0.00012538518348973897
-0.00012814090180819475
-0.0001336523384451063
-0.00013089662012665053
-0.0001171180285343716
-0.00010885087357900426
-0.00011160659189746003
-0.0001198737468528274
-0.0001171180285343716
-0.00010609515526054846
-9.507228198672531e-05
-9.231656366826955e-05
-0.00010333943694209268
-0.00010333943694209268
-9.507228198672531e-05
-7.85379720759906e-05
-7.027081712062322e-05
-7.57822537575348e-05
-8.129369039444639e-05
-7.57822537575348e-05
-6.475938048371164e-05
-5.6492225528344285e-05
-5.9247943846800084e-05
-7.302653543907902e-05
-7.027081712062322e-05
-5.6492225528344285e-05
-4.2713633936065354e-05
-4.5469352254521147e-05
-5.6492225528344285e-05
-5.3736507209888505e-05
-3.995791561760957e-05
-2.6179324025330647e-05
-2.6179324025330647e-05
-3.720219729915378e-05
-3.4446478980697995e-05
-6.889295796140132e-06
-9.64501411459592e-06
-2.342360570687485e-05
-2.8935042343786426e-05
-2.342360570687485e-05
-1.7912169069963278e-05
-1.7912169069963278e-05
-3.169076066224221e-05
-4.2713633936065354e-05
-3.995791561760957e-05
-3.720219729915378e-05
-3.995791561760957e-05
-5.3736507209888505e-05
-6.475938048371164e-05
-6.475938048371164e-05
-5.3736507209888505e-05
-4.5469352254521147e-05
-5.3736507209888505e-05
-6.475938048371164e-05
-6.751509880216745e-05
-5.6492225528344285e-05
-4.5469352254521147e-05
-5.3736507209888505e-05
-6.751509880216745e-05
-6.751509880216745e-05
-5.9247943846800084e-05
-5.098078889143272e-05
-5.3736507209888505e-05
-6.751509880216745e-05
-6.751509880216745e-05
-6.200366216525588e-05
-5.6492225528344285e-05
-5.9247943846800084e-05
-6.751509880216745e-05
-7.302653543907902e-05
-7.302653543907902e-05
-6.475938048371164e-05
-6.200366216525588e-05
-7.302653543907902e-05
-8.129369039444639e-05
-8.129369039444639e-05
-7.027081712062322e-05
-6.475938048371164e-05
-7.302653543907902e-05
-8.404940871290214e-05
-8.404940871290214e-05
-7.57822537575348e-05
-6.475938048371164e-05
-7.027081712062322e-05
-8.404940871290214e-05
-8.680512703135793e-05
-7.027081712062322e-05
-5.3736507209888505e-05
-4.8225070572976926e-05
-4.8225070572976926e-05
-4.2713633936065354e-05
-2.6179324025330647e-05
-1.5156450751507488e-05
-2.066788738841907e-05
-3.169076066224221e-05
-3.169076066224221e-05
-2.342360570687485e-05
-3.169076066224221e-05
-5.3736507209888505e-05
-7.027081712062322e-05
-7.302653543907902e-05
-6.751509880216745e-05
-6.751509880216745e-05
-8.404940871290214e-05
-9.78280003051811e-05
-0.00010058371862363688
-9.231656366826955e-05
-8.680512703135793e-05
-9.507228198672531e-05
-0.00010609515526054846
-0.00010609515526054846
-9.507228198672531e-05
-7.85379720759906e-05
-8.129369039444639e-05
-8.956084534981374e-05
-9.507228198672531e-05
-0.00011436231021591582
-0.00016947667658503157
-0.0002218353246356915
-0.00019152242313267784
-8.680512703135793e-05
0.00010333943694209132
0.00041749132524605104
0.0008225819180590517
0.0011753138628213923
0.001423328511482413
0.0014315956664377805
0.0011918481727321271
0.0008198261997405958
0.00042024704356450677
0.00019152242313267648
0.00010609515526054714
6.475938048371032e-05
3.169076066224089e-05
-2.342360570687485e-05
-7.85379720759906e-05
-0.00010609515526054846
-0.00011436231021591582
-0.0001226294651712832
-0.0001391637750820179
-0.00015569808499275262
-0.00015294236667429682
-0.00014191949340047367
-0.0001336523384451063
-0.0001364080567635621
-0.000150186648355841
-0.00015294236667429682
-0.00014467521171892948
-0.00013089662012665053
-0.00013089662012665053
-0.00014191949340047367
-0.00014191949340047367
-0.00012814090180819475
-0.0001171180285343716
-0.00011160659189746003
-0.0001198737468528274
-0.00012814090180819475
-0.0001171180285343716
-0.00010609515526054846
-0.00010609515526054846
-0.00011160659189746003
-0.00010609515526054846
-9.231656366826955e-05
-7.85379720759906e-05
-8.129369039444639e-05
-8.680512703135793e-05
-8.129369039444639e-05
-7.027081712062322e-05
-6.200366216525588e-05
-6.751509880216745e-05
-7.302653543907902e-05
-7.027081712062322e-05
-6.200366216525588e-05
-5.098078889143272e-05
-5.098078889143272e-05
-5.6492225528344285e-05
-6.475938048371164e-05
-5.3736507209888505e-05
-4.2713633936065354e-05
-4.5469352254521147e-05
-5.6492225528344285e-05
-5.6492225528344285e-05
-4.5469352254521147e-05
-3.720219729915378e-05
-3.169076066224221e-05
-3.995791561760957e-05
-4.5469352254521147e-05
-3.995791561760957e-05
-2.8935042343786426e-05
-2.6179324025330647e-05
-3.995791561760957e-05
-4.8225070572976926e-05
-4.8225070572976926e-05
-4.5469352254521147e-05
-4.2713633936065354e-05
-5.3736507209888505e-05
-7.027081712062322e-05
-7.302653543907902e-05
-6.200366216525588e-05
-5.098078889143272e-05
-5.6492225528344285e-05
-6.751509880216745e-05
-6.751509880216745e-05
-5.9247943846800084e-05
-4.8225070572976926e-05
-4.5469352254521147e-05
-6.200366216525588e-05
-6.751509880216745e-05
-5.9247943846800084e-05
-5.098078889143272e-05
-4.8225070572976926e-05
-5.9247943846800084e-05
-6.475938048371164e-05
-5.9247943846800084e-05
-4.8225070572976926e-05
-4.2713633936065354e-05
-5.3736507209888505e-05
-5.9247943846800084e-05
-5.6492225528344285e-05
-4.5469352254521147e-05
-4.2713633936065354e-05
-7.027081712062322e-05
-7.302653543907902e-05
-6.200366216525588e-05
-5.098078889143272e-05
-5.6492225528344285e-05
-6.751509880216745e-05
-6.475938048371164e-05
-5.6492225528344285e-05
-4.8225070572976926e-05
-5.9247943846800084e-05
-7.57822537575348e-05
-7.027081712062322e-05
-5.3736507209888505e-05
-3.169076066224221e-05
-2.6179324025330647e-05
-2.8935042343786426e-05
-2.6179324025330647e-05
-2.342360570687485e-05
-1.7912169069963278e-05
-1.5156450751507488e-05
-2.8935042343786426e-05
-4.2713633936065354e-05
-5.098078889143272e-05
-5.098078889143272e-05
-5.9247943846800084e-05
-8.129369039444639e-05
-9.78280003051811e-05
-9.231656366826955e-05
-8.956084534981374e-05
-8.680512703135793e-05
-9.231656366826955e-05
-0.00010609515526054846
-0.00010885087357900426
-0.00010058371862363688
-9.507228198672531e-05
-0.00010058371862363688
-0.00011160659189746003
-0.00011160659189746003
-0.00010058371862363688
-8.680512703135793e-05
-8.680512703135793e-05
-0.00010609515526054846
-0.00014743093003738526
-0.0002108124513618684
-0.00023285819790951464
-0.00016947667658503157
-5.9247943846800084e-05
0.00015018664835583973
0.0005166971847104594
0.0009576121156633854
0.001324122652018005
0.0015335572442206446
0.0014591528496223384
0.0011615352712291134
0.000753688960097657
0.00037891126878767
0.00018049954985885336
9.507228198672396e-05
4.546935225451981e-05
4.133577477683014e-06
-4.5469352254521147e-05
-9.78280003051811e-05
-0.0001584538033112084
-0.0001584538033112084
-0.000150186648355841
-0.00015569808499275262
-0.00017223239490348733
-0.00016947667658503157
-0.0001612095216296642
-0.00015294236667429682
-0.000150186648355841
-0.0001584538033112084
-0.00016396523994811996
-0.00015294236667429682
-0.00014191949340047367
-0.0001391637750820179
-0.00014743093003738526
-0.000150186648355841
-0.00014191949340047367
-0.00013089662012665053
-0.0001226294651712832
-0.00012538518348973897
-0.0001336523384451063
-0.00012814090180819475
-0.00011160659189746003
-0.00010058371862363688
-0.00010333943694209268
-0.00010885087357900426
-0.00010609515526054846
-9.78280003051811e-05
-8.404940871290214e-05
-8.129369039444639e-05
-8.680512703135793e-05
-8.680512703135793e-05
-7.57822537575348e-05
-6.200366216525588e-05
-6.200366216525588e-05
-7.027081712062322e-05
-7.302653543907902e-05
-6.475938048371164e-05
-5.6492225528344285e-05
-5.9247943846800084e-05
-7.302653543907902e-05
-8.129369039444639e-05
-7.57822537575348e-05
-5.9247943846800084e-05
-5.6492225528344285e-05
-7.027081712062322e-05
-7.85379720759906e-05
-7.027081712062322e-05
-5.6492225528344285e-05
-4.8225070572976926e-05
-5.9247943846800084e-05
-7.027081712062322e-05
-6.751509880216745e-05
-5.3736507209888505e-05
-4.2713633936065354e-05
-5.098078889143272e-05
-6.751509880216745e-05
-7.302653543907902e-05
-6.475938048371164e-05
-5.6492225528344285e-05
-6.475938048371164e-05
-7.85379720759906e-05
-7.57822537575348e-05
-6.475938048371164e-05
-6.475938048371164e-05
-7.85379720759906e-05
-8.129369039444639e-05
-7.302653543907902e-05
-5.6492225528344285e-05
-5.3736507209888505e-05
-6.475938048371164e-05
-7.027081712062322e-05
-6.475938048371164e-05
-5.098078889143272e-05
-3.720219729915378e-05
-5.098078889143272e-05
-5.9247943846800084e-05
-5.6492225528344285e-05
-4.8225070572976926e-05
-4.2713633936065354e-05
-5.3736507209888505e-05
-6.475938048371164e-05
-6.475938048371164e-05
-5.098078889143272e-05
-3.995791561760957e-05
-4.8225070572976926e-05
-5.6492225528344285e-05
-5.6492225528344285e-05
-4.5469352254521147e-05
-3.169076066224221e-05
-4.2713633936065354e-05
-6.200366216525588e-05
-6.200366216525588e-05
-5.3736507209888505e-05
-3.720219729915378e-05
-2.342360570687485e-05
-2.342360570687485e-05
-2.6179324025330647e-05
-1.5156450751507488e-05
1.3778591592272275e-06
6.8892957961388014e-06
-4.133577477684346e-06
-1.240073243305171e-05
-1.240073243305171e-05
-1.240073243305171e-05
-1.7912169069963278e-05
-3.995791561760957e-05
-6.475938048371164e-05
-7.027081712062322e-05
-5.6492225528344285e-05
-4.5469352254521147e-05
-5.9247943846800084e-05
-7.85379720759906e-05
-8.404940871290214e-05
-7.85379720759906e-05
-7.302653543907902e-05
-7.57822537575348e-05
-8.956084534981374e-05
-8.956084534981374e-05
-7.57822537575348e-05
-6.200366216525588e-05
-6.200366216525588e-05
-7.027081712062322e-05
-7.57822537575348e-05
-0.00014743093003738526
-0.00019152242313267784
-0.00016672095826657574
-8.129369039444639e-05
8.956084534981241e-05
0.0003982012970168605
0.0008005361715114055
0.0011477566796368347
0.001376481300068665
0.0013682141451132974
0.0011312223697260999
0.0007812461432822147
0.00040371273365377215
0.00017774383154039756
9.23165636682682e-05
5.649222552834297e-05
2.6179324025329308e-05
-2.342360570687485e-05
-7.57822537575348e-05
-0.00010333943694209268
-0.00011160659189746003
-0.00011160659189746003
-0.0001171180285343716
-0.00012538518348973897
-0.00013089662012665053
-0.00012538518348973897
-0.00011436231021591582
-0.00011436231021591582
-0.0001226294651712832
-0.00012538518348973897
-0.0001171180285343716
-0.00010609515526054846
-0.00010333943694209268
-0.00011160659189746003
-0.0001198737468528274
-0.00011160659189746003
-9.78280003051811e-05
-8.956084534981374e-05
-9.507228198672531e-05
-0.00010058371862363688
-9.78280003051811e-05
-8.404940871290214e-05
-7.027081712062322e-05
-7.302653543907902e-05
-8.404940871290214e-05
-8.129369039444639e-05
-6.751509880216745e-05
-5.3736507209888505e-05
-5.098078889143272e-05
-6.475938048371164e-05
-6.200366216525588e-05
-4.5469352254521147e-05
-3.169076066224221e-05
-3.4446478980697995e-05
-4.8225070572976926e-05
-4.8225070572976926e-05
-3.995791561760957e-05
-3.169076066224221e-05
-2.8935042343786426e-05
-4.2713633936065354e-05
-4.8225070572976926e-05
-4.5469352254521147e-05
-3.4446478980697995e-05
-3.995791561760957e-05
-5.098078889143272e-05
-5.098078889143272e-05
-3.720219729915378e-05
-3.169076066224221e-05
-3.720219729915378e-05
-4.5469352254521147e-05
-4.2713633936065354e-05
-3.4446478980697995e-05
-2.8935042343786426e-05
-3.4446478980697995e-05
-5.098078889143272e-05
-5.3736507209888505e-05
-4.2713633936065354e-05
-3.4446478980697995e-05
-3.995791561760957e-05
-5.3736507209888505e-05
-5.6492225528344285e-05
-5.098078889143272e-05
-3.995791561760957e-05
-3.720219729915378e-05
-4.8225070572976926e-05
-5.6492225528344285e-05
-4.8225070572976926e-05
-3.4446478980697995e-05
-2.8935042343786426e-05
-3.720219729915378e-05
-4.5469352254521147e-05
-4.2713633936065354e-05
-3.4446478980697995e-05
-2.8935042343786426e-05
-3.720219729915378e-05
-4.5469352254521147e-05
-4.5469352254521147e-05
-3.720219729915378e-05
-2.6179324025330647e-05
-3.169076066224221e-05
-4.8225070572976926e-05
-4.5469352254521147e-05
-3.4446478980697995e-05
-2.342360570687485e-05
-2.342360570687485e-05
-3.4446478980697995e-05
-3.4446478980697995e-05
-2.6179324025330647e-05
-1.7912169069963278e-05
-2.6179324025330647e-05
-3.995791561760957e-05
-4.2713633936065354e-05
-3.169076066224221e-05
-1.240073243305171e-05
1.3778591592272275e-06
-1.377859159228559e-06
-1.377859159228559e-06
9.64501411459459e-06
2.3423605706873515e-05
2.6179324025329308e-05
1.2400732433050376e-05
4.133577477683014e-06
6.8892957961388014e-06
6.8892957961388014e-06
6.8892957961388014e-06
-3.995791561760957e-05
-4.8225070572976926e-05
-3.4446478980697995e-05
-3.169076066224221e-05
-5.098078889143272e-05
-7.027081712062322e-05
-7.302653543907902e-05
-7.027081712062322e-05
-5.9247943846800084e-05
-6.475938048371164e-05
-8.129369039444639e-05
-8.680512703135793e-05
-7.57822537575348e-05
-6.475938048371164e-05
-6.200366216525588e-05
-7.027081712062322e-05
-7.85379720759906e-05
-8.680512703135793e-05
-0.0001336523384451063
-0.00016672095826657574
-0.00014191949340047367
-6.751509880216745e-05
8.956084534981241e-05
0.00037615555046921414
0.0007481775234607456
0.0010623294117647053
0.0012662525673304335
0.001244206820782787
0.0010182379186694126
0.0006930631570916297
0.00035135408560311223
0.00013916377508201656
5.098078889143139e-05
1.7912169069961946e-05
-1.377859159228559e-06
-3.995791561760957e-05
-8.680512703135793e-05
-0.00010609515526054846
-0.00011436231021591582
-0.00011436231021591582
-0.00011436231021591582
-0.00012538518348973897
-0.0001336523384451063
-0.00012538518348973897
-0.0001171180285343716
-0.0001171180285343716
-0.00012814090180819475
-0.0001336523384451063
-0.00013089662012665053
-0.0001171180285343716
-0.00010885087357900426
-0.00011436231021591582
-0.0001226294651712832
-0.0001226294651712832
-0.00010609515526054846
-9.231656366826955e-05
-9.507228198672531e-05
-0.00010333943694209268
-9.78280003051811e-05
-8.404940871290214e-05
-7.027081712062322e-05
-6.751509880216745e-05
-7.57822537575348e-05
-6.200366216525588e-05
-5.098078889143272e-05
-5.098078889143272e-05
-5.6492225528344285e-05
-5.3736507209888505e-05
-4.5469352254521147e-05
-2.8935042343786426e-05
-2.6179324025330647e-05
-3.720219729915378e-05
-4.2713633936065354e-05
-3.720219729915378e-05
-2.066788738841907e-05
-1.5156450751507488e-05
-2.342360570687485e-05
-3.169076066224221e-05
-3.169076066224221e-05
-2.066788738841907e-05
-1.240073243305171e-05
-2.066788738841907e-05
-3.4446478980697995e-05
-2.8935042343786426e-05
-2.066788738841907e-05
-1.240073243305171e-05
-1.240073243305171e-05
-2.342360570687485e-05
-2.6179324025330647e-05
-1.5156450751507488e-05
-4.133577477684346e-06
-9.64501411459592e-06
-2.066788738841907e-05
-2.6179324025330647e-05
-2.342360570687485e-05
-1.7912169069963278e-05
-2.6179324025330647e-05
-4.2713633936065354e-05
-4.5469352254521147e-05
-3.995791561760957e-05
-3.4446478980697995e-05
-3.720219729915378e-05
-4.8225070572976926e-05
-5.6492225528344285e-05
-4.8225070572976926e-05
-3.720219729915378e-05
-3.720219729915378e-05
-5.098078889143272e-05
-6.475938048371164e-05
-6.200366216525588e-05
-5.098078889143272e-05
-4.5469352254521147e-05
-5.6492225528344285e-05
-6.751509880216745e-05
-6.475938048371164e-05
-5.6492225528344285e-05
-4.5469352254521147e-05
-5.098078889143272e-05
-6.475938048371164e-05
-6.475938048371164e-05
-5.6492225528344285e-05
-4.5469352254521147e-05
-4.8225070572976926e-05
-5.9247943846800084e-05
-4.2713633936065354e-05
-2.8935042343786426e-05
-2.8935042343786426e-05
-4.2713633936065354e-05
-4.2713633936065354e-05
-2.6179324025330647e-05
1.3778591592272275e-06
1.7912169069961946e-05
1.5156450751506162e-05
1.2400732433050376e-05
2.3423605706873515e-05
3.169076066224089e-05
3.9957915617608246e-05
3.169076066224089e-05
2.066788738841773e-05
2.066788738841773e-05
1.7912169069961946e-05
1.7912169069961946e-05
1.3778591592272275e-06
-2.342360570687485e-05
-2.8935042343786426e-05
-1.7912169069963278e-05
-1.5156450751507488e-05
-2.8935042343786426e-05
-4.5469352254521147e-05
-4.8225070572976926e-05
-4.2713633936065354e-05
-2.8935042343786426e-05
-3.169076066224221e-05
-4.8225070572976926e-05
-5.6492225528344285e-05
-4.5469352254521147e-05
-3.4446478980697995e-05
-2.8935042343786426e-05
-3.995791561760957e-05
-5.3736507209888505e-05
-8.404940871290214e-05
-0.0001336523384451063
-0.00012814090180819475
-7.027081712062322e-05
3.720219729915245e-05
0.0002549039444571596
0.000599368734264133
0.00097414642557412
0.0012552296940566102
0.0013737255817502093
0.0012359396658274198
0.0009438335240711064
0.0005800787060349425
0.0002852168459601733
0.00014467521171892812
8.68051270313566e-05
5.9247943846798756e-05
3.444647898069667e-05
-6.889295796140132e-06
-4.8225070572976926e-05
-7.027081712062322e-05
-7.57822537575348e-05
-7.027081712062322e-05
-6.751509880216745e-05
-8.404940871290214e-05
-9.507228198672531e-05
-7.57822537575348e-05
-7.302653543907902e-05
-8.404940871290214e-05
-9.231656366826955e-05
-8.956084534981374e-05
-7.302653543907902e-05
-6.200366216525588e-05
-7.027081712062322e-05
-7.85379720759906e-05
-7.57822537575348e-05
-6.475938048371164e-05
-5.3736507209888505e-05
-5.9247943846800084e-05
-7.302653543907902e-05
-7.027081712062322e-05
-5.3736507209888505e-05
-4.2713633936065354e-05
-4.2713633936065354e-05
-5.3736507209888505e-05
-5.3736507209888505e-05
-3.995791561760957e-05
-2.8935042343786426e-05
-2.342360570687485e-05
-2.8935042343786426e-05
-3.169076066224221e-05
-2.6179324025330647e-05
-1.240073243305171e-05
-9.64501411459592e-06
-2.066788738841907e-05
-2.6179324025330647e-05
-2.066788738841907e-05
-4.133577477684346e-06
1.3778591592272275e-06
-9.64501411459592e-06
-2.066788738841907e-05
-1.7912169069963278e-05
-4.133577477684346e-06
1.3778591592272275e-06
-9.64501411459592e-06
-1.7912169069963278e-05
-1.240073243305171e-05
-1.377859159228559e-06
9.64501411459459e-06
6.8892957961388014e-06
-4.133577477684346e-06
-4.133577477684346e-06
4.133577477683014e-06
1.2400732433050376e-05
6.8892957961388014e-06
-9.64501411459592e-06
-1.7912169069963278e-05
-9.64501411459592e-06
1.3778591592272275e-06
-1.377859159228559e-06
-2.342360570687485e-05
-3.169076066224221e-05
-2.8935042343786426e-05
-2.066788738841907e-05
-1.5156450751507488e-05
-2.8935042343786426e-05
-3.4446478980697995e-05
-3.169076066224221e-05
-1.7912169069963278e-05
-2.342360570687485e-05
-3.4446478980697995e-05
-3.169076066224221e-05
-2.066788738841907e-05
-1.5156450751507488e-05
-2.342360570687485e-05
-3.4446478980697995e-05
-3.4446478980697995e-05
-2.342360570687485e-05
-1.5156450751507488e-05
-2.066788738841907e-05
-3.4446478980697995e-05
-3.995791561760957e-05
-3.169076066224221e-05
-2.342360570687485e-05
-2.6179324025330647e-05
-3.995791561760957e-05
-4.5469352254521147e-05
-3.720219729915378e-05
-2.342360570687485e-05
-1.7912169069963278e-05
-2.6179324025330647e-05
-3.4446478980697995e-05
-3.720219729915378e-05
-2.8935042343786426e-05
-2.066788738841907e-05
-2.066788738841907e-05
-2.066788738841907e-05
-6.889295796140132e-06
1.2400732433050376e-05
2.066788738841773e-05
1.2400732433050376e-05
1.3778591592272275e-06
1.3778591592272275e-06
1.2400732433050376e-05
2.066788738841773e-05
6.8892957961388014e-06
-2.066788738841907e-05
-3.720219729915378e-05
-3.995791561760957e-05
-3.720219729915378e-05
-3.995791561760957e-05
-5.6492225528344285e-05
-5.9247943846800084e-05
-5.6492225528344285e-05
-4.8225070572976926e-05
-4.8225070572976926e-05
-6.200366216525588e-05
-7.302653543907902e-05
-7.027081712062322e-05
-5.9247943846800084e-05
-5.3736507209888505e-05
-6.200366216525588e-05
-6.751509880216745e-05
-5.9247943846800084e-05
-5.3736507209888505e-05
-7.85379720759906e-05
-0.00014743093003738526
-0.00018876670481422206
-0.0001364080567635621
-2.8935042343786426e-05
0.0004670942549782553
0.0008363605096513305
0.001169802426184481
0.0013902598916609437
0.0013571912718394743
0.001089886594949263
0.0007068417486839086
0.00035410980392156795
0.00018601098649576498
0.0001253851834897376
7.853797207598924e-05
1.7912169069961946e-05
-3.720219729915378e-05
-7.027081712062322e-05
-8.129369039444639e-05
-9.231656366826955e-05
-0.0001171180285343716
-0.0001336523384451063
-0.00013089662012665053
-0.0001171180285343716
-0.00011160659189746003
-0.0001226294651712832
-0.0001364080567635621
-0.00013089662012665053
-0.00011436231021591582
-0.00010609515526054846
-0.00011436231021591582
-0.00012538518348973897
-0.00012538518348973897
-0.0001171180285343716
-0.00010609515526054846
-0.00010609515526054846
-0.00011436231021591582
-0.00011436231021591582
-0.00010609515526054846
-9.507228198672531e-05
-9.231656366826955e-05
-0.00010058371862363688
-0.00010058371862363688
-8.956084534981374e-05
-7.57822537575348e-05
-7.027081712062322e-05
-7.85379720759906e-05
-8.404940871290214e-05
-7.85379720759906e-05
-6.475938048371164e-05
-5.6492225528344285e-05
-6.475938048371164e-05
-7.027081712062322e-05
-5.9247943846800084e-05
-4.5469352254521147e-05
-3.720219729915378e-05
-4.5469352254521147e-05
-5.3736507209888505e-05
-4.8225070572976926e-05
-3.4446478980697995e-05
-2.6179324025330647e-05
-2.6179324025330647e-05
-3.4446478980697995e-05
-3.169076066224221e-05
-2.342360570687485e-05
-1.240073243305171e-05
-2.342360570687485e-05
-2.8935042343786426e-05
-2.342360570687485e-05
-9.64501411459592e-06
-9.64501411459592e-06
-2.066788738841907e-05
-2.6179324025330647e-05
-2.6179324025330647e-05
-2.342360570687485e-05
-2.8935042343786426e-05
-3.995791561760957e-05
-5.098078889143272e-05
-5.3736507209888505e-05
-4.2713633936065354e-05
-3.720219729915378e-05
-4.8225070572976926e-05
-6.200366216525588e-05
-5.6492225528344285e-05
-4.5469352254521147e-05
-3.995791561760957e-05
-4.8225070572976926e-05
-6.200366216525588e-05
-6.200366216525588e-05
-4.8225070572976926e-05
-3.4446478980697995e-05
-3.720219729915378e-05
-4.5469352254521147e-05
-4.8225070572976926e-05
-4.2713633936065354e-05
-3.4446478980697995e-05
-3.720219729915378e-05
-5.6492225528344285e-05
-6.475938048371164e-05
-5.9247943846800084e-05
-4.5469352254521147e-05
-4.5469352254521147e-05
-5.6492225528344285e-05
-6.200366216525588e-05
-5.6492225528344285e-05
-4.2713633936065354e-05
-3.720219729915378e-05
-4.8225070572976926e-05
-5.6492225528344285e-05
-5.3736507209888505e-05
-4.2713633936065354e-05
-3.720219729915378e-05
-4.8225070572976926e-05
-6.200366216525588e-05
-5.6492225528344285e-05
-3.169076066224221e-05
-1.240073243305171e-05
-9.64501411459592e-06
-1.5156450751507488e-05
-6.889295796140132e-06
-1.377859159228559e-06
4.133577477683014e-06
1.3778591592272275e-06
-9.64501411459592e-06
-1.240073243305171e-05
-1.5156450751507488e-05
-1.7912169069963278e-05
-2.8935042343786426e-05
-6.751509880216745e-05
-5.9247943846800084e-05
-5.098078889143272e-05
-5.098078889143272e-05
-6.751509880216745e-05
-8.129369039444639e-05
-8.404940871290214e-05
-7.302653543907902e-05
-6.751509880216745e-05
-8.129369039444639e-05
-9.507228198672531e-05
-8.956084534981374e-05
-7.57822537575348e-05
-6.200366216525588e-05
-7.027081712062322e-05
-8.680512703135793e-05
-0.0001171180285343716
-0.00016947667658503157
-0.00018325526817731047
-0.00012538518348973897
-2.6179324025330647e-05
0.00016672095826657444
0.0004946514381628131
0.0009024977492942696
0.0012386953841458756
0.0014205727931639574
0.0013406569619287395
0.0010568179751277937
0.0006820402838178067
0.00035135408560311223
0.00017774383154039756
9.782800030517979e-05
5.649222552834297e-05
2.6179324025329308e-05
-2.6179324025330647e-05
-7.85379720759906e-05
-0.00011436231021591582
-0.00013089662012665053
-0.0001336523384451063
-0.00012814090180819475
-0.0001391637750820179
-0.00015294236667429682
-0.00015294236667429682
-0.0001391637750820179
-0.00012814090180819475
-0.0001336523384451063
-0.00014467521171892948
-0.00014467521171892948
-0.00013089662012665053
-0.0001198737468528274
-0.0001171180285343716
-0.00012814090180819475
-0.00013089662012665053
-0.0001226294651712832
-0.00010609515526054846
-0.00010333943694209268
-0.00011436231021591582
-0.0001171180285343716
-0.00010609515526054846
-9.231656366826955e-05
-8.680512703135793e-05
-9.507228198672531e-05
-8.680512703135793e-05
-7.027081712062322e-05
-6.475938048371164e-05
-6.751509880216745e-05
-7.57822537575348e-05
-6.751509880216745e-05
-5.6492225528344285e-05
-4.8225070572976926e-05
-5.098078889143272e-05
-5.9247943846800084e-05
-5.9247943846800084e-05
-4.8225070572976926e-05
-3.995791561760957e-05
-4.5469352254521147e-05
-5.6492225528344285e-05
-5.9247943846800084e-05
-4.8225070572976926e-05
-3.720219729915378e-05
-3.720219729915378e-05
-4.8225070572976926e-05
-5.098078889143272e-05
-3.720219729915378e-05
-1.7912169069963278e-05
-1.5156450751507488e-05
-2.6179324025330647e-05
-3.4446478980697995e-05
-2.6179324025330647e-05
-1.7912169069963278e-05
-1.5156450751507488e-05
-3.169076066224221e-05
-4.8225070572976926e-05
-5.098078889143272e-05
-4.5469352254521147e-05
-4.2713633936065354e-05
-5.3736507209888505e-05
-6.475938048371164e-05
-6.751509880216745e-05
-5.9247943846800084e-05
-5.3736507209888505e-05
-5.9247943846800084e-05
-6.751509880216745e-05
-7.027081712062322e-05
-6.200366216525588e-05
-5.3736507209888505e-05
-5.6492225528344285e-05
-6.751509880216745e-05
-6.751509880216745e-05
-5.6492225528344285e-05
-4.5469352254521147e-05
-4.2713633936065354e-05
-5.6492225528344285e-05
-5.9247943846800084e-05
-5.3736507209888505e-05
-4.2713633936065354e-05
-3.995791561760957e-05
-5.3736507209888505e-05
-6.200366216525588e-05
-5.9247943846800084e-05
-5.098078889143272e-05
-4.8225070572976926e-05
-5.6492225528344285e-05
-6.475938048371164e-05
-5.3736507209888505e-05
-5.098078889143272e-05
-6.200366216525588e-05
-7.302653543907902e-05
-7.302653543907902e-05
-5.6492225528344285e-05
-3.4446478980697995e-05
-2.8935042343786426e-05
-3.995791561760957e-05
-3.169076066224221e-05
-1.5156450751507488e-05
-1.240073243305171e-05
-1.7912169069963278e-05
-3.169076066224221e-05
-3.720219729915378e-05
-3.4446478980697995e-05
-3.4446478980697995e-05
-4.5469352254521147e-05
-6.475938048371164e-05
-8.129369039444639e-05
-8.404940871290214e-05
-7.302653543907902e-05
-7.027081712062322e-05
-8.956084534981374e-05
-0.00010333943694209268
-0.00010609515526054846
-9.507228198672531e-05
-8.680512703135793e-05
-9.507228198672531e-05
-0.00010333943694209268
-9.78280003051811e-05
-8.404940871290214e-05
-7.57822537575348e-05
-7.85379720759906e-05
-8.956084534981374e-05
-0.00010333943694209268
-0.0001391637750820179
-0.00020254529640650095
-0.0002108124513618684
-0.00014743093003738526
-2.342360570687485e-05
0.00022459104295414594
0.0006159030441748677
0.0010347722285801472
0.0013571912718394743
0.0015087557793545424
0.001376481300068665
0.0010568179751277937
0.0006462159456778814
0.0003127740291447311
0.00015845380331120705
9.507228198672396e-05
5.9247943846798756e-05
1.5156450751506162e-05
-5.098078889143272e-05
-0.00010333943694209268
-0.0001226294651712832
-0.00012538518348973897
-0.00012814090180819475
-0.0001391637750820179
-0.000150186648355841
-0.000150186648355841
-0.00013089662012665053
-0.00013089662012665053
-0.00014191949340047367
-0.00014467521171892948
-0.0001391637750820179
-0.0001226294651712832
-0.0001198737468528274
-0.00013089662012665053
-0.0001364080567635621
-0.00012814090180819475
-0.00011436231021591582
-0.00011436231021591582
-0.00012538518348973897
-0.00012814090180819475
-0.0001171180285343716
-0.00010058371862363688
-9.507228198672531e-05
-0.00010058371862363688
-0.00010333943694209268
-9.507228198672531e-05
-7.85379720759906e-05
-6.751509880216745e-05
-7.302653543907902e-05
-8.129369039444639e-05
-7.85379720759906e-05
-6.475938048371164e-05
-5.3736507209888505e-05
-5.6492225528344285e-05
-7.302653543907902e-05
-7.57822537575348e-05
-6.475938048371164e-05
-5.3736507209888505e-05
-5.3736507209888505e-05
-6.475938048371164e-05
-7.027081712062322e-05
-5.9247943846800084e-05
-4.5469352254521147e-05
-4.5469352254521147e-05
-6.200366216525588e-05
-6.751509880216745e-05
-5.6492225528344285e-05
-3.995791561760957e-05
-3.4446478980697995e-05
-4.2713633936065354e-05
-4.5469352254521147e-05
-3.4446478980697995e-05
-2.342360570687485e-05
-2.066788738841907e-05
-3.4446478980697995e-05
-4.2713633936065354e-05
-4.2713633936065354e-05
-3.995791561760957e-05
-3.720219729915378e-05
-4.5469352254521147e-05
-6.475938048371164e-05
-6.751509880216745e-05
-5.6492225528344285e-05
-4.8225070572976926e-05
-4.8225070572976926e-05
-5.9247943846800084e-05
-6.200366216525588e-05
-5.3736507209888505e-05
-4.2713633936065354e-05
-5.3736507209888505e-05
-5.6492225528344285e-05
-4.8225070572976926e-05
-3.4446478980697995e-05
-3.4446478980697995e-05
-5.098078889143272e-05
-5.6492225528344285e-05
-5.6492225528344285e-05
-4.5469352254521147e-05
-3.720219729915378e-05
-4.5469352254521147e-05
-5.6492225528344285e-05
-5.3736507209888505e-05
-4.5469352254521147e-05
-3.720219729915378e-05
-3.995791561760957e-05
-5.098078889143272e-05
-5.3736507209888505e-05
-4.5469352254521147e-05
-3.995791561760957e-05
-5.098078889143272e-05
-6.200366216525588e-05
-5.9247943846800084e-05
-3.995791561760957e-05
-2.342360570687485e-05
-1.5156450751507488e-05
-1.5156450751507488e-05
-6.889295796140132e-06
-1.377859159228559e-06
6.8892957961388014e-06
9.64501411459459e-06
-1.377859159228559e-06
-9.64501411459592e-06
-1.5156450751507488e-05
-2.066788738841907e-05
-2.8935042343786426e-05
-5.3736507209888505e-05
-7.027081712062322e-05
-6.475938048371164e-05
-5.3736507209888505e-05
-5.9247943846800084e-05
-7.57822537575348e-05
-8.680512703135793e-05
-8.404940871290214e-05
-7.85379720759906e-05
-7.027081712062322e-05
-7.85379720759906e-05
-8.956084534981374e-05
-8.680512703135793e-05
-7.57822537575348e-05
-6.475938048371164e-05
-7.027081712062322e-05
-8.680512703135793e-05
-0.0001198737468528274
-0.00018876670481422206
-0.00022459104295414727
-0.00016672095826657574
-7.302653543907902e-05
0.00011711802853437029
0.0004643385366597993
0.0008997420309758136
0.0014977329060807197
0.0014508856946669714
0.001178069581139848
0.0007840018616006707
0.0004064684519722279
0.0001970338597695881
0.00010885087357900291
5.9247943846798756e-05
1.7912169069961946e-05
-2.6179324025330647e-05
-7.85379720759906e-05
-0.00011436231021591582
-0.0001336523384451063
-0.0001364080567635621
-0.0001336523384451063
-0.0001364080567635621
-0.00014743093003738526
-0.000150186648355841
-0.00014191949340047367
-0.0001364080567635621
-0.0001336523384451063
-0.0001391637750820179
-0.0001391637750820179
-0.00013089662012665053
-0.0001226294651712832
-0.0001198737468528274
-0.00012814090180819475
-0.00012814090180819475
-0.0001226294651712832
-0.00011436231021591582
-0.00010885087357900426
-0.00011436231021591582
-0.0001226294651712832
-0.0001198737468528274
-0.00010609515526054846
-9.231656366826955e-05
-9.78280003051811e-05
-0.00010333943694209268
-9.231656366826955e-05
-7.85379720759906e-05
-6.751509880216745e-05
-6.751509880216745e-05
-7.57822537575348e-05
-7.57822537575348e-05
-6.475938048371164e-05
-5.9247943846800084e-05
-5.9247943846800084e-05
-6.751509880216745e-05
-6.751509880216745e-05
-6.200366216525588e-05
-5.098078889143272e-05
-5.3736507209888505e-05
-6.475938048371164e-05
-6.751509880216745e-05
-6.475938048371164e-05
-5.3736507209888505e-05
-5.098078889143272e-05
-6.200366216525588e-05
-6.751509880216745e-05
-6.200366216525588e-05
-5.098078889143272e-05
-4.2713633936065354e-05
-5.6492225528344285e-05
-5.3736507209888505e-05
-4.2713633936065354e-05
-3.4446478980697995e-05
-4.2713633936065354e-05
-5.9247943846800084e-05
-5.6492225528344285e-05
-5.098078889143272e-05
-4.5469352254521147e-05
-5.098078889143272e-05
-6.200366216525588e-05
-6.200366216525588e-05
-5.3736507209888505e-05
-4.2713633936065354e-05
-4.5469352254521147e-05
-5.9247943846800084e-05
-5.9247943846800084e-05
-5.3736507209888505e-05
-4.5469352254521147e-05
-3.995791561760957e-05
-5.098078889143272e-05
-5.9247943846800084e-05
-5.3736507209888505e-05
-4.5469352254521147e-05
-3.995791561760957e-05
-4.5469352254521147e-05
-5.3736507209888505e-05
-5.098078889143272e-05
-3.995791561760957e-05
-3.4446478980697995e-05
-3.995791561760957e-05
-5.098078889143272e-05
-5.3736507209888505e-05
-3.995791561760957e-05
-3.169076066224221e-05
-3.4446478980697995e-05
-4.8225070572976926e-05
-4.5469352254521147e-05
-3.720219729915378e-05
-3.169076066224221e-05
-3.4446478980697995e-05
-4.5469352254521147e-05
-4.2713633936065354e-05
-2.8935042343786426e-05
-6.889295796140132e-06
1.3778591592272275e-06
-4.133577477684346e-06
-4.133577477684346e-06
1.3778591592272275e-06
9.64501411459459e-06
1.2400732433050376e-05
1.3778591592272275e-06
-1.5156450751507488e-05
-2.066788738841907e-05
-2.066788738841907e-05
-2.8935042343786426e-05
-5.098078889143272e-05
-6.475938048371164e-05
-6.200366216525588e-05
-5.6492225528344285e-05
-5.098078889143272e-05
-5.9247943846800084e-05
-7.85379720759906e-05
-7.302653543907902e-05
-6.475938048371164e-05
-6.751509880216745e-05
-8.129369039444639e-05
-8.680512703135793e-05
-7.302653543907902e-05
-5.9247943846800084e-05
-5.9247943846800084e-05
-8.956084534981374e-05
-0.00014743093003738526
-0.00018876670481422206
-0.00015294236667429682
-6.751509880216745e-05
6.751509880216611e-05
0.00032655262073701005
0.0007068417486839086
0.0010705965667200726
0.001321366933699549
0.0013434126802471958
0.0011064209048599978
0.0007757347066453035
0.00041473560692759526
0.00018876670481422076
8.404940871290084e-05
2.8935042343785094e-05
-1.377859159228559e-06
-2.8935042343786426e-05
-5.9247943846800084e-05
-9.231656366826955e-05
-0.0001198737468528274
-0.00013089662012665053
-0.0001226294651712832
-0.00010885087357900426
-0.00011436231021591582
-0.00013089662012665053
-0.0001336523384451063
-0.0001226294651712832
-0.00010885087357900426
-0.00011160659189746003
-0.00012538518348973897
-0.00013089662012665053
-0.0001198737468528274
-0.00011160659189746003
-0.00010333943694209268
-0.00011160659189746003
-0.0001198737468528274
-0.00011436231021591582
-0.00010058371862363688
-9.78280003051811e-05
-0.00010333943694209268
-0.00010609515526054846
-9.507228198672531e-05
-8.404940871290214e-05
-7.302653543907902e-05
-7.57822537575348e-05
-8.129369039444639e-05
-7.85379720759906e-05
-6.475938048371164e-05
-4.8225070572976926e-05
-4.5469352254521147e-05
-5.6492225528344285e-05
-4.5469352254521147e-05
-3.4446478980697995e-05
-3.4446478980697995e-05
-4.2713633936065354e-05
-4.2713633936065354e-05
-3.720219729915378e-05
-2.6179324025330647e-05
-2.6179324025330647e-05
-4.2713633936065354e-05
-5.3736507209888505e-05
-5.098078889143272e-05
-3.995791561760957e-05
-3.4446478980697995e-05
-4.2713633936065354e-05
-5.098078889143272e-05
-5.098078889143272e-05
-3.995791561760957e-05
-2.6179324025330647e-05
-3.4446478980697995e-05
-4.2713633936065354e-05
-4.2713633936065354e-05
-2.8935042343786426e-05
-1.7912169069963278e-05
-2.8935042343786426e-05
-4.8225070572976926e-05
-5.098078889143272e-05
-4.2713633936065354e-05
-3.169076066224221e-05
-3.4446478980697995e-05
-5.098078889143272e-05
-5.3736507209888505e-05
-5.098078889143272e-05
-4.2713633936065354e-05
-3.995791561760957e-05
-4.8225070572976926e-05
-5.9247943846800084e-05
-5.9247943846800084e-05
-5.098078889143272e-05
-4.8225070572976926e-05
-5.6492225528344285e-05
-6.200366216525588e-05
-5.6492225528344285e-05
-4.5469352254521147e-05
-3.4446478980697995e-05
-4.5469352254521147e-05
-5.6492225528344285e-05
-5.6492225528344285e-05
-4.8225070572976926e-05
-3.995791561760957e-05
-4.2713633936065354e-05
-5.098078889143272e-05
-4.8225070572976926e-05
-3.720219729915378e-05
-2.6179324025330647e-05
-2.6179324025330647e-05
-4.2713633936065354e-05
-4.8225070572976926e-05
-4.2713633936065354e-05
-3.169076066224221e-05
-2.6179324025330647e-05
-2.342360570687485e-05
-1.7912169069963278e-05
4.133577477683014e-06
1.2400732433050376e-05
-1.377859159228559e-06
-9.64501411459592e-06
-6.889295796140132e-06
1.3778591592272275e-06
1.3778591592272275e-06
-1.7912169069963278e-05
-4.2713633936065354e-05
-5.9247943846800084e-05
-5.3736507209888505e-05
-3.995791561760957e-05
-4.8225070572976926e-05
-6.475938048371164e-05
-7.027081712062322e-05
-6.751509880216745e-05
-6.200366216525588e-05
-6.751509880216745e-05
-8.404940871290214e-05
-8.956084534981374e-05
-7.85379720759906e-05
-6.200366216525588e-05
-6.200366216525588e-05
-7.027081712062322e-05
-7.027081712062322e-05
-7.027081712062322e-05
-8.956084534981374e-05
-0.00014191949340047367
-0.00016672095826657574
-0.00012538518348973897
-2.6179324025330647e-05
0.00016672095826657444
0.0004781171282520784
0.0008225819180590517
0.0011174437781338207
0.0012882983138780798
0.0012138939192797731
0.000949344960708018
0.0005911015793087656
0.00026592681773098274
0.00010333943694209132
3.720219729915245e-05
4.133577477683014e-06
-3.4446478980697995e-05
-8.129369039444639e-05
-0.00011160659189746003
-0.0001198737468528274
-0.00012538518348973897
-0.0001336523384451063
-0.00014743093003738526
-0.00015569808499275262
-0.00014743093003738526
-0.0001364080567635621
-0.0001364080567635621
-0.00015294236667429682
-0.0001584538033112084
-0.00014467521171892948
-0.00013089662012665053
-0.00012814090180819475
-0.0001391637750820179
-0.00014743093003738526
-0.0001364080567635621
-0.0001226294651712832
-0.0001226294651712832
-0.00013089662012665053
-0.00012814090180819475
-0.00011436231021591582
-0.00010333943694209268
-0.00010885087357900426
-0.0001198737468528274
-0.0001198737468528274
-0.00010333943694209268
-8.680512703135793e-05
-8.956084534981374e-05
-9.78280003051811e-05
-9.507228198672531e-05
-8.129369039444639e-05
-6.751509880216745e-05
-6.751509880216745e-05
-7.85379720759906e-05
-8.680512703135793e-05
-7.85379720759906e-05
-6.200366216525588e-05
-5.9247943846800084e-05
-7.302653543907902e-05
-8.129369039444639e-05
-7.57822537575348e-05
-6.475938048371164e-05
-6.200366216525588e-05
-7.302653543907902e-05
-8.129369039444639e-05
-7.57822537575348e-05
-6.475938048371164e-05
-5.9247943846800084e-05
-6.200366216525588e-05
-6.751509880216745e-05
-7.027081712062322e-05
-5.6492225528344285e-05
-4.2713633936065354e-05
-5.098078889143272e-05
-6.200366216525588e-05
-6.200366216525588e-05
-5.6492225528344285e-05
-4.8225070572976926e-05
-5.098078889143272e-05
-6.475938048371164e-05
-7.302653543907902e-05
-6.751509880216745e-05
-5.3736507209888505e-05
-5.3736507209888505e-05
-6.751509880216745e-05
-7.57822537575348e-05
-7.027081712062322e-05
-6.200366216525588e-05
-5.3736507209888505e-05
-5.9247943846800084e-05
-5.6492225528344285e-05
-4.8225070572976926e-05
-3.169076066224221e-05
-2.066788738841907e-05
-2.342360570687485e-05
-3.4446478980697995e-05
-3.4446478980697995e-05
-2.342360570687485e-05
-1.240073243305171e-05
-2.8935042343786426e-05
-3.4446478980697995e-05
-2.6179324025330647e-05
-1.7912169069963278e-05
-1.7912169069963278e-05
-2.6179324025330647e-05
-2.8935042343786426e-05
-2.342360570687485e-05
-1.5156450751507488e-05
-1.240073243305171e-05
-2.066788738841907e-05
-2.6179324025330647e-05
-2.342360570687485e-05
-1.5156450751507488e-05
-4.133577477684346e-06
-1.377859159228559e-06
-1.377859159228559e-06
9.64501411459459e-06
2.8935042343785094e-05
3.720219729915245e-05
2.6179324025329308e-05
1.5156450751506162e-05
1.7912169069961946e-05
2.3423605706873515e-05
2.066788738841773e-05
4.133577477683014e-06
-1.7912169069963278e-05
-2.8935042343786426e-05
-2.6179324025330647e-05
-1.5156450751507488e-05
-2.066788738841907e-05
-3.995791561760957e-05
-4.5469352254521147e-05
-3.995791561760957e-05
-2.8935042343786426e-05
-3.4446478980697995e-05
-5.098078889143272e-05
-5.3736507209888505e-05
-4.8225070572976926e-05
-3.720219729915378e-05
-3.4446478980697995e-05
-4.8225070572976926e-05
-5.3736507209888505e-05
-5.3736507209888505e-05
-7.57822537575348e-05
-0.00012814090180819475
-0.00015294236667429682
-0.00010333943694209268
4.133577477683014e-06
0.00021632388799877858
0.000547010086213473
0.0009107649042496368
0.001205626764324406
0.0013709698634317533
0.001285542595559624
0.0010044593270771337
0.0006269259174486908
0.00030450687418936376
0.00015018664835583973
9.23165636682682e-05
5.9247943846798756e-05
2.066788738841773e-05
-7.302653543907902e-05
-8.680512703135793e-05
-8.956084534981374e-05
-9.78280003051811e-05
-0.00011436231021591582
-0.00012538518348973897
-0.0001198737468528274
-0.00010609515526054846
-0.00010058371862363688
-0.00010609515526054846
-0.00011436231021591582
-0.00011436231021591582
-0.00010058371862363688
-8.956084534981374e-05
-9.507228198672531e-05
-0.00010609515526054846
-0.00010609515526054846
-8.956084534981374e-05
-7.57822537575348e-05
-8.129369039444639e-05
-9.78280003051811e-05
-9.231656366826955e-05
-7.57822537575348e-05
-6.200366216525588e-05
-6.200366216525588e-05
-7.302653543907902e-05
-7.302653543907902e-05
-5.9247943846800084e-05
-4.5469352254521147e-05
-4.2713633936065354e-05
-5.098078889143272e-05
-5.6492225528344285e-05
-4.5469352254521147e-05
-3.169076066224221e-05
-2.6179324025330647e-05
-3.995791561760957e-05
-4.5469352254521147e-05
-3.995791561760957e-05
-2.8935042343786426e-05
-2.066788738841907e-05
-2.6179324025330647e-05
-3.169076066224221e-05
-2.8935042343786426e-05
-1.7912169069963278e-05
-4.133577477684346e-06
-9.64501411459592e-06
-2.066788738841907e-05
-1.7912169069963278e-05
-6.889295796140132e-06
6.8892957961388014e-06
4.133577477683014e-06
-9.64501411459592e-06
-1.240073243305171e-05
-6.889295796140132e-06
1.3778591592272275e-06
-1.377859159228559e-06
-1.7912169069963278e-05
-2.6179324025330647e-05
-2.6179324025330647e-05
-2.342360570687485e-05
-2.066788738841907e-05
-3.169076066224221e-05
-3.995791561760957e-05
-2.8935042343786426e-05
-2.6179324025330647e-05
-3.720219729915378e-05
-4.5469352254521147e-05
-4.5469352254521147e-05
-3.4446478980697995e-05
-2.342360570687485e-05
-3.169076066224221e-05
-4.5469352254521147e-05
-4.5469352254521147e-05
-3.169076066224221e-05
-2.066788738841907e-05
-2.6179324025330647e-05
-3.720219729915378e-05
-4.2713633936065354e-05
-3.995791561760957e-05
-2.8935042343786426e-05
-3.169076066224221e-05
-4.5469352254521147e-05
-4.8225070572976926e-05
-4.5469352254521147e-05
-3.4446478980697995e-05
-3.4446478980697995e-05
-5.098078889143272e-05
-6.200366216525588e-05
-5.3736507209888505e-05
-3.995791561760957e-05
-3.720219729915378e-05
-4.5469352254521147e-05
-5.6492225528344285e-05
-5.6492225528344285e-05
-4.8225070572976926e-05
-4.2713633936065354e-05
-5.3736507209888505e-05
-6.200366216525588e-05
-4.8225070572976926e-05
-2.6179324025330647e-05
-1.240073243305171e-05
-9.64501411459592e-06
-1.7912169069963278e-05
-2.342360570687485e-05
-1.240073243305171e-05
-1.377859159228559e-06
-1.377859159228559e-06
-2.066788738841907e-05
-3.720219729915378e-05
-4.2713633936065354e-05
-4.5469352254521147e-05
-5.9247943846800084e-05
-7.57822537575348e-05
-8.404940871290214e-05
-8.129369039444639e-05
-7.57822537575348e-05
-7.85379720759906e-05
-9.231656366826955e-05
-9.78280003051811e-05
-9.507228198672531e-05
-8.956084534981374e-05
-8.680512703135793e-05
-8.956084534981374e-05
-9.78280003051811e-05
-8.129369039444639e-05
-7.302653543907902e-05
-9.78280003051811e-05
-0.00016672095826657574
-0.00021356816968032413
-0.00017223239490348733
-7.57822537575348e-05
7.30265354390777e-05
0.00033206405737392166
0.0007040860303654528
0.0010761080033569843
0.0013489241168841066
0.0013875041733424878
0.0011532681162737465
0.0007840018616006707
0.00041197988860913943
0.0001970338597695881
0.00010885087357900291
4.546935225451981e-05
-4.133577477684346e-06
-4.2713633936065354e-05
-7.85379720759906e-05
-0.00010885087357900426
-0.0001391637750820179
-0.0001584538033112084
-0.00016672095826657574
-0.0001612095216296642
-0.0001584538033112084
-0.00016672095826657574
-0.0001777438315403989
-0.00017498811322194308
-0.0001612095216296642
-0.00015569808499275262
-0.0001584538033112084
-0.00016947667658503157
-0.00016672095826657574
-0.00015569808499275262
-0.00014467521171892948
-0.00014743093003738526
-0.0001584538033112084
-0.0001584538033112084
-0.000150186648355841
-0.0001364080567635621
-0.0001391637750820179
-0.00014467521171892948
-0.00014467521171892948
-0.0001364080567635621
-0.0001198737468528274
-0.00011160659189746003
-0.0001198737468528274
-0.0001226294651712832
-0.00011436231021591582
-0.00010058371862363688
-9.231656366826955e-05
-0.00010058371862363688
-0.00010609515526054846
-0.00010333943694209268
-8.680512703135793e-05
-7.85379720759906e-05
-8.129369039444639e-05
-9.231656366826955e-05
-8.956084534981374e-05
-6.475938048371164e-05
-6.751509880216745e-05
-8.129369039444639e-05
-8.129369039444639e-05
-7.027081712062322e-05
-5.9247943846800084e-05
-5.6492225528344285e-05
-6.475938048371164e-05
-7.027081712062322e-05
-6.200366216525588e-05
-5.098078889143272e-05
-4.5469352254521147e-05
-5.6492225528344285e-05
-6.475938048371164e-05
-6.751509880216745e-05
-5.6492225528344285e-05
-5.6492225528344285e-05
-7.302653543907902e-05
-8.680512703135793e-05
-8.680512703135793e-05
-8.129369039444639e-05
-7.85379720759906e-05
-8.404940871290214e-05
-9.231656366826955e-05
-8.956084534981374e-05
-8.129369039444639e-05
-7.302653543907902e-05
-7.57822537575348e-05
-8.956084534981374e-05
-8.680512703135793e-05
-7.57822537575348e-05
-6.751509880216745e-05
-7.027081712062322e-05
-8.404940871290214e-05
-8.680512703135793e-05
-7.85379720759906e-05
-7.027081712062322e-05
-6.475938048371164e-05
-7.302653543907902e-05
-7.85379720759906e-05
-7.57822537575348e-05
-6.751509880216745e-05
-6.751509880216745e-05
-8.129369039444639e-05
-8.680512703135793e-05
-8.680512703135793e-05
-8.129369039444639e-05
-7.57822537575348e-05
-8.129369039444639e-05
-8.956084534981374e-05
-8.680512703135793e-05
-7.57822537575348e-05
-7.027081712062322e-05
-7.85379720759906e-05
-9.231656366826955e-05
-9.231656366826955e-05
-8.404940871290214e-05
-6.751509880216745e-05
-5.9247943846800084e-05
-6.200366216525588e-05
-5.6492225528344285e-05
-3.720219729915378e-05
-2.8935042343786426e-05
-4.2713633936065354e-05
-4.5469352254521147e-05
-4.2713633936065354e-05
-4.2713633936065354e-05
-5.3736507209888505e-05
-7.85379720759906e-05
-9.507228198672531e-05
-9.507228198672531e-05
-8.404940871290214e-05
-7.85379720759906e-05
-9.507228198672531e-05
-0.00011160659189746003
-0.00011160659189746003
-0.00010333943694209268
-9.78280003051811e-05
-0.00010333943694209268
-0.00011436231021591582
-0.0001198737468528274
-0.00011160659189746003
-0.00010058371862363688
-0.00010058371862363688
-0.00010885087357900426
-0.00011436231021591582
-0.0001391637750820179
-0.00019427814145113364
-0.0002190796063172357
-0.00017223239490348733
-7.027081712062322e-05
0.00013640805676356078
0.000469849973296711
0.0008694291294728002
0.0012001153276874944
0.0013875041733424878
0.001321366933699549
0.0010430393835355147
0.0006655059739070718
0.000315529747463187
0.00013916377508201656
6.751509880216611e-05
2.8935042343785094e-05
-4.133577477684346e-06
-6.200366216525588e-05
-0.0001171180285343716
-0.00014191949340047367
-0.00014467521171892948
-0.00015294236667429682
-0.00016396523994811996
-0.00017498811322194308
-0.00017498811322194308
-0.00016396523994811996
-0.0001584538033112084
-0.0001612095216296642
-0.00017223239490348733
-0.0001777438315403989
-0.00016672095826657574
-0.00015569808499275262
-0.00015294236667429682
-0.0001612095216296642
-0.0001584538033112084
-0.00014743093003738526
-0.00013089662012665053
-0.0001364080567635621
-0.00014743093003738526
-0.00014191949340047367
-0.00012814090180819475
-0.00011436231021591582
-0.00012538518348973897
-0.00013089662012665053
-0.0001226294651712832
-0.00010885087357900426
-9.78280003051811e-05
-0.00010058371862363688
-0.00010885087357900426
-0.00010333943694209268
-8.680512703135793e-05
-7.57822537575348e-05
-7.57822537575348e-05
-8.680512703135793e-05
-8.956084534981374e-05
-7.57822537575348e-05
-6.475938048371164e-05
-6.475938048371164e-05
-7.302653543907902e-05
-8.129369039444639e-05
-7.57822537575348e-05
-6.751509880216745e-05
-6.200366216525588e-05
-7.302653543907902e-05
-7.85379720759906e-05
-6.751509880216745e-05
-5.6492225528344285e-05
-4.8225070572976926e-05
-5.3736507209888505e-05
-6.200366216525588e-05
-5.6492225528344285e-05
-4.8225070572976926e-05
-4.5469352254521147e-05
-5.9247943846800084e-05
-7.57822537575348e-05
-7.57822537575348e-05
-6.751509880216745e-05
-6.200366216525588e-05
-7.302653543907902e-05
-8.956084534981374e-05
-8.956084534981374e-05
-8.129369039444639e-05
-7.302653543907902e-05
-7.302653543907902e-05
-8.404940871290214e-05
-8.404940871290214e-05
-7.85379720759906e-05
-6.475938048371164e-05
-6.200366216525588e-05
-7.302653543907902e-05
-7.57822537575348e-05
-6.751509880216745e-05
-6.200366216525588e-05
-5.9247943846800084e-05
-6.751509880216745e-05
-7.57822537575348e-05
-7.027081712062322e-05
-5.9247943846800084e-05
-5.098078889143272e-05
-7.302653543907902e-05
-7.302653543907902e-05
-6.475938048371164e-05
-5.9247943846800084e-05
-6.200366216525588e-05
-7.302653543907902e-05
-7.57822537575348e-05
-7.027081712062322e-05
-6.200366216525588e-05
-6.751509880216745e-05
-8.404940871290214e-05
-8.680512703135793e-05
-8.129369039444639e-05
-7.027081712062322e-05
-5.6492225528344285e-05
-5.6492225528344285e-05
-5.3736507209888505e-05
-3.720219729915378e-05
-2.066788738841907e-05
-1.240073243305171e-05
-2.342360570687485e-05
-2.8935042343786426e-05
-2.8935042343786426e-05
-2.342360570687485e-05
-2.8935042343786426e-05
-5.098078889143272e-05
-7.302653543907902e-05
-8.404940871290214e-05
-7.57822537575348e-05
-7.027081712062322e-05
-7.85379720759906e-05
-9.507228198672531e-05
-9.78280003051811e-05
-9.231656366826955e-05
-8.680512703135793e-05
-8.956084534981374e-05
-0.00010609515526054846
-0.00011436231021591582
-0.00010058371862363688
-8.680512703135793e-05
-8.680512703135793e-05
-9.78280003051811e-05
-0.00010058371862363688
-0.00010885087357900426
-0.000150186648355841
-0.00021632388799877996
-0.00022459104295414727
-0.00015294236667429682
-1.240073243305171e-05
0.00026041538109407124
0.0006710174105439835
0.0010761080033569843
0.0013875041733424878
0.0015032443427176307
0.0013434126802471958
0.0010044593270771337
0.0005745672693980309
0.000263171099412527
0.00013640805676356078
8.129369039444505e-05
4.271363393606403e-05
-1.5156450751507488e-05
-0.0001171180285343716
-0.00012814090180819475
-0.0001364080567635621
-0.00014467521171892948
-0.0001584538033112084
-0.00016672095826657574
-0.0001612095216296642
-0.00015569808499275262
-0.00015294236667429682
-0.00016396523994811996
-0.00017223239490348733
-0.00016396523994811996
-0.000150186648355841
-0.00014191949340047367
-0.00014467521171892948
-0.000150186648355841
-0.00014467521171892948
-0.00013089662012665053
-0.0001198737468528274
-0.00012814090180819475
-0.0001391637750820179
-0.0001336523384451063
-0.0001226294651712832
-0.00010885087357900426
-0.00010885087357900426
-0.0001226294651712832
-0.0001226294651712832
-0.00010885087357900426
-9.507228198672531e-05
-9.231656366826955e-05
-9.507228198672531e-05
-9.231656366826955e-05
-8.680512703135793e-05
-7.85379720759906e-05
-7.57822537575348e-05
-8.680512703135793e-05
-8.956084534981374e-05
-8.129369039444639e-05
-7.027081712062322e-05
-7.027081712062322e-05
-8.404940871290214e-05
-9.231656366826955e-05
-9.231656366826955e-05
-8.129369039444639e-05
-7.302653543907902e-05
-7.85379720759906e-05
-9.231656366826955e-05
-8.956084534981374e-05
-7.57822537575348e-05
-6.751509880216745e-05
-7.027081712062322e-05
-7.85379720759906e-05
-7.57822537575348e-05
-6.200366216525588e-05
-5.3736507209888505e-05
-5.6492225528344285e-05
-7.027081712062322e-05
-7.85379720759906e-05
-7.57822537575348e-05
-6.475938048371164e-05
-6.475938048371164e-05
-8.129369039444639e-05
-7.85379720759906e-05
-6.751509880216745e-05
-6.200366216525588e-05
-7.027081712062322e-05
-7.85379720759906e-05
-7.57822537575348e-05
-6.200366216525588e-05
-5.3736507209888505e-05
-6.751509880216745e-05
-7.57822537575348e-05
-7.302653543907902e-05
-6.475938048371164e-05
-5.098078889143272e-05
-5.3736507209888505e-05
-7.027081712062322e-05
-7.027081712062322e-05
-5.9247943846800084e-05
-4.5469352254521147e-05
-4.8225070572976926e-05
-6.200366216525588e-05
-6.200366216525588e-05
-5.3736507209888505e-05
-4.5469352254521147e-05
-4.8225070572976926e-05
-5.6492225528344285e-05
-5.6492225528344285e-05
-5.3736507209888505e-05
-4.5469352254521147e-05
-4.2713633936065354e-05
-5.6492225528344285e-05
-6.475938048371164e-05
-5.9247943846800084e-05
-4.8225070572976926e-05
-3.995791561760957e-05
-3.720219729915378e-05
-3.4446478980697995e-05
-2.6179324025330647e-05
-9.64501411459592e-06
1.3778591592272275e-06
-6.889295796140132e-06
-1.7912169069963278e-05
-2.066788738841907e-05
-1.7912169069963278e-05
-1.5156450751507488e-05
-2.6179324025330647e-05
-5.098078889143272e-05
-6.475938048371164e-05
-6.751509880216745e-05
-5.6492225528344285e-05
-5.3736507209888505e-05
-7.302653543907902e-05
-8.404940871290214e-05
-7.85379720759906e-05
-6.751509880216745e-05
-6.475938048371164e-05
-7.57822537575348e-05
-8.404940871290214e-05
-7.85379720759906e-05
-7.027081712062322e-05
-6.475938048371164e-05
-7.57822537575348e-05
-8.404940871290214e-05
-9.507228198672531e-05
-0.00014743093003738526
-0.0002108124513618684
-0.00019427814145113364
-0.00010333943694209268
6.751509880216611e-05
0.000365132677195391
0.0007619561150530243
0.0011339780880445555
0.0014040384832532226
0.0014426185397116034
0.0012221610742351409
0.0008528948195620654
0.0004422927901121532
0.00019978957808804387
0.00010885087357900291
7.02708171206219e-05
2.8935042343785094e-05
-3.169076066224221e-05
-7.85379720759906e-05
-9.78280003051811e-05
-0.00010058371862363688
-0.00010885087357900426
-0.00012814090180819475
-0.0001364080567635621
-0.0001336523384451063
-0.0001226294651712832
-0.00011160659189746003
-0.0001198737468528274
-0.00013089662012665053
-0.00013089662012665053
-0.0001198737468528274
-0.00010885087357900426
-0.0001171180285343716
-0.00013089662012665053
-0.00012814090180819475
-0.00011436231021591582
-0.00010333943694209268
-0.00010885087357900426
-0.0001198737468528274
-0.0001171180285343716
-0.00010609515526054846
-9.231656366826955e-05
-8.956084534981374e-05
-9.78280003051811e-05
-0.00010058371862363688
-8.956084534981374e-05
-7.57822537575348e-05
-6.751509880216745e-05
-7.302653543907902e-05
-7.57822537575348e-05
-6.751509880216745e-05
-5.6492225528344285e-05
-4.5469352254521147e-05
-4.8225070572976926e-05
-5.3736507209888505e-05
-5.098078889143272e-05
-3.995791561760957e-05
-3.4446478980697995e-05
-4.8225070572976926e-05
-5.9247943846800084e-05
-6.200366216525588e-05
-5.098078889143272e-05
-5.9247943846800084e-05
-7.57822537575348e-05
-8.129369039444639e-05
-7.027081712062322e-05
-5.3736507209888505e-05
-5.3736507209888505e-05
-6.751509880216745e-05
-6.751509880216745e-05
-5.6492225528344285e-05
-4.5469352254521147e-05
-4.5469352254521147e-05
-6.200366216525588e-05
-7.027081712062322e-05
-6.751509880216745e-05
-5.6492225528344285e-05
-5.9247943846800084e-05
-7.302653543907902e-05
-7.85379720759906e-05
-7.57822537575348e-05
-6.475938048371164e-05
-5.6492225528344285e-05
-6.475938048371164e-05
-7.57822537575348e-05
-7.85379720759906e-05
-6.751509880216745e-05
-5.6492225528344285e-05
-6.200366216525588e-05
-7.302653543907902e-05
-7.302653543907902e-05
-6.475938048371164e-05
-5.098078889143272e-05
-5.6492225528344285e-05
-7.027081712062322e-05
-7.57822537575348e-05
-6.751509880216745e-05
-5.3736507209888505e-05
-4.8225070572976926e-05
-5.6492225528344285e-05
-6.200366216525588e-05
-5.9247943846800084e-05
-5.098078889143272e-05
-5.098078889143272e-05
-6.200366216525588e-05
-6.751509880216745e-05
-6.200366216525588e-05
-5.098078889143272e-05
-4.5469352254521147e-05
-5.3736507209888505e-05
-6.475938048371164e-05
-6.751509880216745e-05
-5.9247943846800084e-05
-5.098078889143272e-05
-5.9247943846800084e-05
-7.302653543907902e-05
-6.200366216525588e-05
-3.720219729915378e-05
-1.7912169069963278e-05
-1.5156450751507488e-05
-2.066788738841907e-05
-2.342360570687485e-05
-2.066788738841907e-05
-1.240073243305171e-05
-2.8935042343786426e-05
-4.5469352254521147e-05
-5.098078889143272e-05
-5.3736507209888505e-05
-6.200366216525588e-05
-7.85379720759906e-05
-8.680512703135793e-05
-8.404940871290214e-05
-8.680512703135793e-05
-8.404940871290214e-05
-9.507228198672531e-05
-0.00010885087357900426
-0.00010609515526054846
-9.78280003051811e-05
-9.231656366826955e-05
-0.00010058371862363688
-0.00010333943694209268
-0.00010058371862363688
-8.680512703135793e-05
-7.85379720759906e-05
-9.507228198672531e-05
-0.00014743093003738526
-0.00020254529640650095
-0.00018876670481422206
-0.00010885087357900426
9.64501411459459e-06
0.0002218353246356902
0.0005635443961242077
0.0009328106507972832
0.0012111382009613175
0.0013048326237888143
0.001128466651407644
0.0008225819180590517
0.0004670942549782553
0.00019978957808804387
7.30265354390777e-05
9.64501411459459e-06
-3.4446478980697995e-05
-6.200366216525588e-05
-8.404940871290214e-05
-0.00010333943694209268
-0.00013089662012665053
-0.00015569808499275262
-0.00015569808499275262
-0.00014743093003738526
-0.0001364080567635621
-0.00014191949340047367
-0.00015569808499275262
-0.00015569808499275262
-0.00014191949340047367
-0.0001336523384451063
-0.0001336523384451063
-0.00014467521171892948
-0.000150186648355841
-0.0001364080567635621
-0.0001226294651712832
-0.0001198737468528274
-0.00013089662012665053
-0.0001336523384451063
-0.00012814090180819475
-0.0001198737468528274
-0.0001198737468528274
-0.00012814090180819475
-0.0001226294651712832
-0.00010885087357900426
-9.507228198672531e-05
-9.507228198672531e-05
-0.00010333943694209268
-9.78280003051811e-05
-8.404940871290214e-05
-7.027081712062322e-05
-7.027081712062322e-05
-7.85379720759906e-05
-7.57822537575348e-05
-6.200366216525588e-05
-4.8225070572976926e-05
-5.098078889143272e-05
-6.475938048371164e-05
-7.027081712062322e-05
-6.200366216525588e-05
-5.3736507209888505e-05
-5.3736507209888505e-05
-6.751509880216745e-05
-7.57822537575348e-05
-6.475938048371164e-05
-4.8225070572976926e-05
-4.2713633936065354e-05
-5.6492225528344285e-05
-6.475938048371164e-05
-5.6492225528344285e-05
-4.5469352254521147e-05
-3.720219729915378e-05
-4.2713633936065354e-05
-5.098078889143272e-05
-5.098078889143272e-05
-4.5469352254521147e-05
-3.720219729915378e-05
-5.098078889143272e-05
-6.751509880216745e-05
-6.475938048371164e-05
-5.3736507209888505e-05
-4.2713633936065354e-05
-4.8225070572976926e-05
-6.200366216525588e-05
-6.751509880216745e-05
-6.200366216525588e-05
-5.098078889143272e-05
-5.3736507209888505e-05
-6.475938048371164e-05
-7.027081712062322e-05
-6.751509880216745e-05
-5.3736507209888505e-05
-5.3736507209888505e-05
-7.302653543907902e-05
-8.129369039444639e-05
-7.302653543907902e-05
-6.475938048371164e-05
-6.200366216525588e-05
-7.57822537575348e-05
-8.129369039444639e-05
-7.85379720759906e-05
-7.302653543907902e-05
-6.751509880216745e-05
-8.956084534981374e-05
-8.680512703135793e-05
-8.129369039444639e-05
-7.027081712062322e-05
-6.751509880216745e-05
-7.57822537575348e-05
-7.85379720759906e-05
-6.751509880216745e-05
-5.6492225528344285e-05
-5.9247943846800084e-05
-7.57822537575348e-05
-7.85379720759906e-05
-6.475938048371164e-05
-3.995791561760957e-05
-2.8935042343786426e-05
-3.720219729915378e-05
-4.2713633936065354e-05
-3.4446478980697995e-05
-2.6179324025330647e-05
-2.066788738841907e-05
-3.169076066224221e-05
-3.720219729915378e-05
-3.720219729915378e-05
-3.720219729915378e-05
-3.995791561760957e-05
-6.200366216525588e-05
-8.680512703135793e-05
-8.956084534981374e-05
-7.85379720759906e-05
-7.57822537575348e-05
-8.680512703135793e-05
-0.00010058371862363688
-0.00010609515526054846
-9.78280003051811e-05
-8.680512703135793e-05
-9.507228198672531e-05
-0.00010885087357900426
-0.00010609515526054846
-9.78280003051811e-05
-8.404940871290214e-05
-7.85379720759906e-05
-8.956084534981374e-05
-0.00010885087357900426
-0.00014743093003738526
-0.00018049954985885472
-0.000150186648355841
-8.404940871290214e-05
4.82250705729756e-05
0.00031001831082627527
0.000679284565499351
0.0010237493553063243
0.0012662525673304335
0.0012993211871519031
0.0010926423132677188
0.0007619561150530243
0.0004092241702906837
0.00016672095826657444
5.098078889143139e-05
4.133577477683014e-06
-1.7912169069963278e-05
-3.995791561760957e-05
-8.129369039444639e-05
-0.0001391637750820179
-0.0001391637750820179
-0.0001364080567635621
-0.0001391637750820179
-0.00015294236667429682
-0.0001584538033112084
-0.000150186648355841
-0.0001391637750820179
-0.0001336523384451063
-0.00014467521171892948
-0.000150186648355841
-0.0001391637750820179
-0.0001226294651712832
-0.00011160659189746003
-0.0001226294651712832
-0.0001336523384451063
-0.00012538518348973897
-0.00011160659189746003
-0.00010333943694209268
-0.00010609515526054846
-0.00011436231021591582
-0.00011436231021591582
-0.00010333943694209268
-8.956084534981374e-05
-8.404940871290214e-05
-9.231656366826955e-05
-8.956084534981374e-05
-7.85379720759906e-05
-5.9247943846800084e-05
-5.6492225528344285e-05
-6.475938048371164e-05
-5.9247943846800084e-05
-3.995791561760957e-05
-2.066788738841907e-05
-1.5156450751507488e-05
-2.342360570687485e-05
-2.342360570687485e-05
-1.7912169069963278e-05
-6.889295796140132e-06
-1.377859159228559e-06
-9.64501411459592e-06
-2.342360570687485e-05
-2.342360570687485e-05
-9.64501411459592e-06
-4.133577477684346e-06
-9.64501411459592e-06
-2.066788738841907e-05
-1.240073243305171e-05
1.3778591592272275e-06
1.2400732433050376e-05
6.8892957961388014e-06
-4.133577477684346e-06
-6.889295796140132e-06
4.133577477683014e-06
1.2400732433050376e-05
4.133577477683014e-06
-9.64501411459592e-06
-1.5156450751507488e-05
-9.64501411459592e-06
1.3778591592272275e-06
-1.377859159228559e-06
-1.7912169069963278e-05
-2.342360570687485e-05
-1.377859159228559e-06
4.133577477683014e-06
-4.133577477684346e-06
-1.240073243305171e-05
-6.889295796140132e-06
4.133577477683014e-06
9.64501411459459e-06
-1.377859159228559e-06
-1.240073243305171e-05
-1.5156450751507488e-05
-6.889295796140132e-06
4.133577477683014e-06
-4.133577477684346e-06
-2.066788738841907e-05
-2.066788738841907e-05
-9.64501411459592e-06
6.8892957961388014e-06
4.133577477683014e-06
-1.5156450751507488e-05
-2.066788738841907e-05
-1.240073243305171e-05
-4.133577477684346e-06
-6.889295796140132e-06
-1.7912169069963278e-05
-2.066788738841907e-05
-1.240073243305171e-05
-4.133577477684346e-06
-6.889295796140132e-06
-1.7912169069963278e-05
-2.6179324025330647e-05
-1.7912169069963278e-05
-4.133577477684346e-06
1.3778591592272275e-06
-1.240073243305171e-05
-2.342360570687485e-05
-2.8935042343786426e-05
-2.066788738841907e-05
-6.889295796140132e-06
-4.133577477684346e-06
-4.133577477684346e-06
6.8892957961388014e-06
2.3423605706873515e-05
3.720219729915245e-05
2.8935042343785094e-05
1.5156450751506162e-05
1.2400732433050376e-05
2.3423605706873515e-05
2.6179324025329308e-05
1.5156450751506162e-05
-1.5156450751507488e-05
-3.720219729915378e-05
-4.2713633936065354e-05
-2.8935042343786426e-05
-2.8935042343786426e-05
-4.8225070572976926e-05
-6.475938048371164e-05
-6.751509880216745e-05
-6.200366216525588e-05
-5.3736507209888505e-05
-6.200366216525588e-05
-7.027081712062322e-05
-7.027081712062322e-05
-4.8225070572976926e-05
-5.6492225528344285e-05
-6.751509880216745e-05
-6.751509880216745e-05
-8.129369039444639e-05
-0.00012814090180819475
-0.00016947667658503157
-0.0001364080567635621
-4.2713633936065354e-05
0.0001253851834897376
0.00041473560692759526
0.0007867575799191265
0.0011201994964522765
0.0013544355535210185
0.0013682141451132974
0.001136733806363011
0.0007812461432822147
0.00040371273365377215
0.00018601098649576498
0.00010333943694209132
6.475938048371032e-05
3.169076066224089e-05
-2.342360570687485e-05
-7.57822537575348e-05
-9.78280003051811e-05
-0.00010333943694209268
-0.00010885087357900426
-0.0001226294651712832
-0.00012814090180819475
-0.00012814090180819475
-0.0001226294651712832
-0.00011436231021591582
-0.0001198737468528274
-0.00012814090180819475
-0.00013089662012665053
-0.0001226294651712832
-0.00011160659189746003
-0.00011160659189746003
-0.0001226294651712832
-0.00012538518348973897
-0.00011436231021591582
-0.00010333943694209268
-0.00010333943694209268
-0.00011436231021591582
-0.0001226294651712832
-0.00011436231021591582
-9.78280003051811e-05
-8.956084534981374e-05
-9.78280003051811e-05
-0.00010333943694209268
-9.231656366826955e-05
-7.85379720759906e-05
-6.751509880216745e-05
-7.302653543907902e-05
-8.129369039444639e-05
-7.85379720759906e-05
-6.200366216525588e-05
-4.8225070572976926e-05
-5.098078889143272e-05
-6.475938048371164e-05
-5.9247943846800084e-05
-4.8225070572976926e-05
-3.4446478980697995e-05
-3.995791561760957e-05
-4.2713633936065354e-05
-3.169076066224221e-05
-1.7912169069963278e-05
-2.066788738841907e-05
-3.169076066224221e-05
-3.4446478980697995e-05
-2.6179324025330647e-05
-9.64501411459592e-06
1.3778591592272275e-06
-6.889295796140132e-06
-1.5156450751507488e-05
-9.64501411459592e-06
-1.377859159228559e-06
-4.133577477684346e-06
-1.5156450751507488e-05
-2.8935042343786426e-05
-3.4446478980697995e-05
-2.6179324025330647e-05
-2.066788738841907e-05
-2.6179324025330647e-05
-3.995791561760957e-05
-4.5469352254521147e-05
-3.720219729915378e-05
-2.6179324025330647e-05
-3.169076066224221e-05
-4.8225070572976926e-05
-5.3736507209888505e-05
-4.5469352254521147e-05
-3.169076066224221e-05
-3.4446478980697995e-05
-4.8225070572976926e-05
-5.098078889143272e-05
-4.2713633936065354e-05
-3.169076066224221e-05
-3.4446478980697995e-05
-4.8225070572976926e-05
-5.6492225528344285e-05
-4.8225070572976926e-05
-3.4446478980697995e-05
-3.169076066224221e-05
-4.8225070572976926e-05
-5.9247943846800084e-05
-5.3736507209888505e-05
-4.2713633936065354e-05
-3.995791561760957e-05
-5.098078889143272e-05
-6.475938048371164e-05
-6.475938048371164e-05
-5.9247943846800084e-05
-5.3736507209888505e-05
-6.200366216525588e-05
-7.027081712062322e-05
-6.751509880216745e-05
-5.9247943846800084e-05
-5.098078889143272e-05
-5.098078889143272e-05
-6.200366216525588e-05
-6.475938048371164e-05
-5.9247943846800084e-05
-4.8225070572976926e-05
-6.751509880216745e-05
-7.85379720759906e-05
-7.302653543907902e-05
-5.6492225528344285e-05
-3.995791561760957e-05
-3.995791561760957e-05
-3.995791561760957e-05
-2.8935042343786426e-05
-2.066788738841907e-05
-1.7912169069963278e-05
-2.6179324025330647e-05
-3.4446478980697995e-05
-3.4446478980697995e-05
-3.4446478980697995e-05
-3.720219729915378e-05
-5.3736507209888505e-05
-7.85379720759906e-05
-8.956084534981374e-05
-8.129369039444639e-05
-7.302653543907902e-05
-8.404940871290214e-05
-0.00010058371862363688
-0.00010333943694209268
-9.507228198672531e-05
-8.956084534981374e-05
-9.231656366826955e-05
-0.00010333943694209268
-0.00010609515526054846
-0.00010058371862363688
-8.404940871290214e-05
-7.85379720759906e-05
-8.680512703135793e-05
-0.00010333943694209268
-0.0001391637750820179
-0.00018601098649576628
-0.00018325526817731047
-0.0001171180285343716
-4.133577477684346e-06
0.0002135681696803228
0.0005690558327611192
0.0009686349889372082
0.001271764003967345
0.0014178170748455018
0.0012993211871519031
0.0009906807354848547
0.0006103916075379561
0.0002934840009155406
0.00013916377508201656
6.475938048371032e-05
2.8935042343785094e-05
-1.377859159228559e-06
-5.098078889143272e-05
-0.00010609515526054846
-0.0001336523384451063
-0.00014191949340047367
-0.0001391637750820179
-0.00014467521171892948
-0.0001584538033112084
-0.00016396523994811996
-0.0001612095216296642
-0.00014743093003738526
-0.0001391637750820179
-0.00015294236667429682
-0.000150186648355841
-0.0001391637750820179
-0.00013089662012665053
-0.00014191949340047367
-0.00015569808499275262
-0.000150186648355841
-0.0001364080567635621
-0.0001226294651712832
-0.0001198737468528274
-0.00012538518348973897
-0.0001226294651712832
-0.00011436231021591582
-0.00010058371862363688
-9.507228198672531e-05
-0.00010609515526054846
-0.00010885087357900426
-9.78280003051811e-05
-8.129369039444639e-05
-7.57822537575348e-05
-8.680512703135793e-05
-9.231656366826955e-05
-8.680512703135793e-05
-7.57822537575348e-05
-7.027081712062322e-05
-7.302653543907902e-05
-8.129369039444639e-05
-7.302653543907902e-05
-5.9247943846800084e-05
-5.098078889143272e-05
-5.6492225528344285e-05
-6.475938048371164e-05
-6.751509880216745e-05
-5.6492225528344285e-05
-4.2713633936065354e-05
-5.098078889143272e-05
-6.200366216525588e-05
-5.9247943846800084e-05
-4.5469352254521147e-05
-2.8935042343786426e-05
-2.8935042343786426e-05
-3.995791561760957e-05
-4.5469352254521147e-05
-3.995791561760957e-05
-3.4446478980697995e-05
-3.4446478980697995e-05
-4.8225070572976926e-05
-5.9247943846800084e-05
-5.3736507209888505e-05
-4.8225070572976926e-05
