-0.00015569808499275262
-0.00011436231021591582
-0.00018325526817731047
-0.00024939250782024937
-0.00020530101472495681
-6.475938048371164e-05
9.64501411459459e-06
1.2400732433050376e-05
-1.377859159228559e-06
4.546935225451981e-05
0.00023010247959105753
0.000469849973296711
0.0005938572976272215
0.0005001628747997245
0.0002549039444571596
-0.00040646845197222917
-0.0007702232700083929
-0.0008363605096513318
-0.0007564446784161143
-0.0006462159456778825
-0.0004615828183413449
-0.0003458426489662019
-0.0003403312123292903
-0.00032655262073701135
-0.00023836963454642628
-0.00010058371862363688
-7.85379720759906e-05
-0.0001336523384451063
-0.00021356816968032413
-0.00021632388799877996
-0.00011436231021591582
-3.4446478980697995e-05
-7.57822537575348e-05
-0.0001391637750820179
-0.00016672095826657574
-9.78280003051811e-05
-4.5469352254521147e-05
-7.302653543907902e-05
-0.0001336523384451063
-0.00014191949340047367
-8.956084534981374e-05
-4.8225070572976926e-05
-4.8225070572976926e-05
-0.00012814090180819475
-0.00017498811322194308
-8.404940871290214e-05
5.9247943846798756e-05
7.30265354390777e-05
-3.169076066224221e-05
-0.0001226294651712832
-6.751509880216745e-05
4.271363393606403e-05
0.00010885087357900291
8.404940871290084e-05
3.444647898069667e-05
6.475938048371032e-05
0.00018049954985885336
0.0002769496910048059
0.00022459104295414594
0.00013365233844510492
0.00014467521171892812
0.00024388107118333642
0.00030450687418936376
0.0002549039444571596
0.00012262946517128183
0.00010333943694209132
0.00023010247959105753
0.0003623769588769353
0.00035135408560311223
0.00024112535286488067
0.000210812451361867
0.00027143825436789435
0.0004009570153353164
0.0004367813534752416
0.0003293083390554659
0.0002769496910048059
0.0003733998321507585
0.000508430029755092
0.0005001628747997245
0.0004092241702906837
0.0004009570153353164
0.0005497658045319286
0.0005938572976272215
0.000456071381704432
0.00035410980392156795
0.0003844227054245816
0.0004891400015259016
0.0005525215228503846
0.0005442543678950173
0.0004064684519722279
0.0002576596627756154
0.0003430869306477448
0.0004478042267490647
0.00035135408560311223
0.00016396523994811866
7.30265354390777e-05
0.00014743093003738393
0.00027143825436789435
0.00026592681773098274
7.853797207598924e-05
-3.995791561760957e-05
4.82250705729756e-05
0.00026592681773098274
0.00029072828259708476
9.782800030517979e-05
-6.751509880216745e-05
-2.066788738841907e-05
0.00017498811322194178
0.00027970540932326175
0.00016672095826657444
2.3423605706873515e-05
4.271363393606403e-05
0.00023561391622796914
0.0003568655222400236
0.00026041538109407124
6.200366216525454e-05
3.444647898069667e-05
0.0001970338597695881
0.00032655262073701005
0.00024663678950179223
-4.133577477684346e-06
-6.200366216525588e-05
0.00011711802853437029
0.0002934840009155406
0.0002879725642786291
0.00010058371862363556
-1.240073243305171e-05
8.956084534981241e-05
0.0002576596627756154
0.00026592681773098274
0.00010885087357900291
-6.475938048371164e-05
-4.8225070572976926e-05
8.68051270313566e-05
0.00011711802853437029
-1.7912169069963278e-05
-0.0001198737468528274
-6.475938048371164e-05
5.098078889143139e-05
0.00011436231021591448
2.066788738841773e-05
-0.00014191949340047367
-0.00017498811322194308
-4.5469352254521147e-05
7.30265354390777e-05
-0.00020530101472495681
-0.0002852168459601746
-0.00017498811322194308
-5.098078889143272e-05
-0.00011436231021591582
-0.0002962397192339978
-0.0003899341420614945
-0.0003045068741893651
-0.00014467521171892948
-0.00013089662012665053
-0.00024388107118333775
-0.00032379690241855563
-0.00028797256427863044
-0.00017223239490348733
-9.507228198672531e-05
-0.00023010247959105888
-0.0003458426489662019
-0.00035410980392156926
-0.00023561391622797047
-0.00018049954985885472
-0.0003127740291447324
-0.0004202470435645082
-0.0004147356069275966
-0.0003320640573739229
-0.0003458426489662019
-0.0004257584802014197
-0.0004946514381628143
-0.0005470100862134743
-0.00054976580453193
-0.0004560713817044334
-0.000447804226749066
-0.0005387429312581068
-0.000591101579308767
-0.0005855901426718552
-0.0005607886778057534
-0.0005084300297550932
-0.0005938572976272227
-0.0006489716639963384
-0.0005580329594872974
-0.00044504850843061025
-0.00040922417029068495
-0.0003954455786984061
-0.0003485983672846577
-0.00015569808499275262
8.68051270313566e-05
0.00018049954985885336
4.82250705729756e-05
-0.0002989954375524536
-0.0007371546501869236
-0.0011780695811398495
-0.001401282764934768
-0.0013599469901579312
-0.0012993211871519042
-0.0011918481727321284
-0.0009548563973449309
-0.0008005361715114068
-0.0008170704814221414
-0.0008280933546959645
-0.0008418719462882435
-0.000795024734874495
-0.0007647118333714817
-0.0007343989318684678
-0.0007784904249637603
-0.000795024734874495
-0.0007895132982375835
-0.0008088033264667742
-0.0008914748760204477
-0.0009024977492942707
-0.0008639176928358897
-0.0008832077210650803
-0.0009080091859311822
-0.0009355663691157402
-0.0009851692988479444
-0.0010072150453955906
-0.0009658792706187539
-0.0009713907072556656
-0.0009879250171664002
-0.0010072150453955906
-0.0009961921721217675
-0.0010072150453955906
-0.0010017036087586794
-0.0010044593270771348
-0.0010347722285801487
-0.0010623294117647064
-0.001026505073624781
-0.0010375279468986046
-0.0010733522850385297
-0.00109264231326772
-0.0010816194399938968
-0.0010678408484016179
-0.0010595736934462504
-0.0010292607919432368
-0.0010733522850385297
-0.0011009094682230872
-0.0010623294117647064
-0.0010816194399938968
-0.0011064209048599993
-0.0010761080033569854
-0.0011036651865415433
-0.0010623294117647064
-0.0010761080033569854
-0.0010595736934462504
-0.0010513065384908833
-0.001056817975127795
-0.0010540622568093393
-0.0010347722285801487
-0.000979657862211033
-0.0009824135805294888
-0.0010733522850385297
-0.0010871308766308087
-0.0010513065384908833
-0.0009961921721217675
-0.0009713907072556656
-0.0010017036087586794
-0.0010375279468986046
-0.0009906807354848563
-0.0009548563973449309
-0.0009741464255741213
-0.0010182379186694142
-0.0010375279468986046
-0.0010871308766308087
-0.0011698024261844818
-0.0012442068207827886
-0.001263496849011979
-0.0013323898069733738
-0.001365458426794843
-0.001365458426794843
-0.001453641412985428
-0.0015197786526283668
-0.0015556029907682917
-0.001572137300679027
-0.0016052059205004963
-0.001649297413595789
-0.0017099232166018165
-0.0017016560616464492
-0.0017319689631494627
-0.001748503273060197
-0.0017512589913786531
-0.0017815718928816668
-0.0017622818646524767
-0.001742991836423286
-0.0017292132448310067
-0.0018146405127031364
-0.0018587320057984289
-0.0018036176394293124
-0.0017760604562447552
-0.0017815718928816668
-0.0017981062027924016
-0.0018173962310215922
-0.001820151949340048
-0.0018256633859769598
-0.0017843276112001222
-0.0017760604562447552
-0.0017788161745632112
-0.0018091290760662245
-0.0018008619211108575
-0.0017815718928816668
-0.0017705490196078433
-0.0018036176394293124
-0.0018311748226138708
-0.0018063733577477691
-0.001765037582970932
-0.001767793301289388
-0.0017815718928816668
-0.0018036176394293124
-0.0017981062027924016
-0.001765037582970932
-0.0017374803997863744
-0.0017457475547417414
-0.001726457526512551
-0.0017595261463340204
-0.0017788161745632112
-0.0017540147096971087
-0.0017512589913786531
-0.0017705490196078433
-0.001767793301289388
-0.0017512589913786531
-0.0017540147096971087
-0.001715434653238728
-0.001715434653238728
-0.0017181903715571835
-0.0017347246814679183
-0.0017016560616464492
-0.0016272516670481428
-0.001610717357137408
-0.00163551882200351
-0.0016630760051880677
-0.0016713431601434352
-0.0016382745403219659
-0.0015748930189974828
-0.0015363129625391013
-0.001511511497673
-0.0014674200045777072
-0.0014260842298008704
-0.0014591528496223395
-0.001511511497673
-0.0014674200045777072
-0.001453641412985428
-0.0014205727931639587
-0.0014619085679407956
-0.0014867100328068976
-0.0015142672159914558
-0.0014508856946669724
-0.0014453742580300608
-0.001453641412985428
-0.0014563971313038841
-0.0014756871595330745
-0.0014453742580300608
-0.0013764813000686665
-0.00135443555352102
-0.0013737255817502102
-0.00135443555352102
-0.0013406569619287408
-0.0013213669336995504
-0.0013158554970626386
-0.001266252567330435
-0.0011698024261844818
-0.0010347722285801487
-0.0009465892423895632
-0.0008225819180590531
-0.0006710174105439848
-0.0005966130159456783
-0.000668261692225529
-0.0008969863126573594
-0.0013764813000686665
-0.001891800625619898
-0.0020736780346379807
-0.001988250766765851
-0.0017925947661554897
-0.0015583587090867482
-0.0014260842298008704
-0.0013434126802471967
-0.0012524739757381555
-0.001156023834592203
-0.0010595736934462504
-0.001056817975127795
-0.0010788637216754414
-0.0010623294117647064
-0.001012726482032502
-0.0009934364538033119
-0.0009989478904402233
-0.0010650851300831622
-0.0010320165102616929
-0.0009493449607080192
-0.0008859634393835361
-0.0008611619745174342
-0.0009217877775234612
-0.0009217877775234612
-0.0008969863126573594
-0.0008446276646066993
-0.0008143147631036856
-0.0008473833829251552
-0.0008859634393835361
-0.0008336047913328761
-0.0007702232700083929
-0.0007977804531929508
-0.0008308490730144205
-0.000795024734874495
-0.0007647118333714817
-0.0006930631570916311
-0.0006351930724040594
-0.000668261692225529
-0.0007040860303654542
-0.0006875517204547195
-0.0006655059739070732
-0.0006875517204547195
-0.0006958188754100868
-0.0006820402838178078
-0.0006324373540856038
-0.0005277200579842838
-0.0005304757763027395
-0.0005745672693980323
-0.000591101579308767
-0.0005304757763027395
-0.00044504850843061025
-0.000423002761882964
-0.0004891400015259028
-0.000500162874799726
-0.00045331566338597764
-0.00040922417029068495
-0.00037891126878767127
-0.00039268986037995033
-0.0004202470435645082
-0.0003982012970168618
-0.00029072828259708617
-0.00024388107118333775
-0.0002824611276417188
-0.0003430869306477461
-0.0003430869306477461
-0.00024939250782024937
-0.00014467521171892948
-0.00016947667658503157
-0.00027143825436789566
-0.00032379690241855563
-0.00027970540932326305
-0.00021356816968032413
-0.0002631710994125282
-0.00036237695887693665
-0.0003954455786984061
-0.0004257584802014197
-0.0004257584802014197
-0.00048638428320744705
-0.0005277200579842838
-0.0005745672693980323
-0.0006048801709010458
-0.0006186587624933248
-0.0006241701991302363
-0.0006269259174486923
-0.0007040860303654542
-0.000745421805142291
-0.0006875517204547195
-0.000668261692225529
-0.0006958188754100868
-0.0007123531853208215
-0.0007178646219577333
-0.0006737731288624405
-0.0006875517204547195
-0.0007343989318684678
-0.0007536889600976582
-0.0007536889600976582
-0.0007426660868238351
-0.0006599945372701616
-0.0006792845654993521
-0.0007647118333714817
-0.0007647118333714817
-0.0007095974670023658
-0.0006930631570916311
-0.0007509332417792025
-0.0007509332417792025
-0.0006820402838178078
-0.0006792845654993521
-0.0007343989318684678
-0.0008225819180590531
-0.0008005361715114068
-0.0007123531853208215
-0.0006655059739070732
-0.0006985745937285427
-0.0007399103685053794
-0.000795024734874495
-0.0008143147631036856
-0.0007895132982375835
-0.0007261317769131007
-0.0007564446784161143
-0.0008198261997405972
-0.0008143147631036856
-0.000720620340276189
-0.0006903074387731753
-0.0007564446784161143
-0.0007895132982375835
-0.0007426660868238351
-0.0007481775234607469
-0.0008115590447852298
-0.0008005361715114068
-0.0008115590447852298
-0.0008336047913328761
-0.0008363605096513318
-0.0007702232700083929
-0.0007123531853208215
-0.0007509332417792025
-0.0008253376363775088
-0.0008528948195620666
-0.0007481775234607469
-0.000720620340276189
-0.0007729789883268486
-0.0008473833829251552
-0.0008584062561989784
-0.0008005361715114068
-0.0007895132982375835
-0.0008391162279697878
-0.0008584062561989784
-0.0008253376363775088
-0.0007729789883268486
-0.0007343989318684678
-0.0007674675516899373
-0.0008776962844281688
-0.0009024977492942707
-0.0008446276646066993
-0.0007536889600976582
-0.0007509332417792025
-0.0008088033264667742
-0.0007895132982375835
-0.0007536889600976582
-0.0007068417486839102
-0.0006875517204547195
-0.0007757347066453045
-0.0008336047913328761
-0.0007922690165560394
-0.0007647118333714817
-0.0007729789883268486
-0.0008198261997405972
-0.000874940566109713
-0.0008942305943389032
-0.0008887191577019918
-0.0008363605096513318
-0.0009052534676127264
-0.0009328106507972846
-0.0008639176928358897
-0.0008088033264667742
-0.0008280933546959645
-0.0009135206225680943
-0.000976902143892577
-0.0009217877775234612
-0.0008639176928358897
-0.000874940566109713
-0.0008832077210650803
-0.0008611619745174342
-0.0007867575799191276
-0.0006434602273594267
-0.0005166971847104609
-0.00041197988860914084
-0.00028797256427863044
-0.00013089662012665053
-0.00016396523994811996
-0.0005442543678950186
-0.0010650851300831622
-0.001572137300679027
-0.001679610315098803
-0.0015087557793545439
-0.0013682141451132987
-0.001263496849011979
-0.0011753138628213936
-0.0010540622568093393
-0.0009024977492942707
-0.0008060476081483182
-0.0007702232700083929
-0.0007399103685053794
-0.0007509332417792025
-0.0007288874952315562
-0.000668261692225529
-0.0006655059739070732
-0.0006847960021362637
-0.0006462159456778825
-0.00060212445258259
-0.0006103916075379574
-0.0006076358892195017
-0.000615903044174869
-0.0005745672693980323
-0.0005745672693980323
-0.0005139414663920051
-0.000500162874799726
-0.000591101579308767
-0.0006103916075379574
-0.0005332314946211955
-0.00047536140993362393
-0.0004560713817044334
-0.0004891400015259028
-0.000500162874799726
-0.00046709425497825643
-0.0004257584802014197
-0.00040371273365377345
-0.00037615555046921565
-0.0004257584802014197
-0.0004615828183413449
-0.00041197988860914084
-0.00040646845197222917
-0.0003844227054245829
-0.0003954455786984061
-0.0003899341420614945
-0.00029348400091554195
-0.00031828546578164407
-0.0003348197756923787
-0.00029348400091554195
-0.00026592681773098404
-0.0002824611276417188
-0.0002686825360494398
-0.0002631710994125282
-0.0002466367895017936
-0.00024388107118333775
-0.00020254529640650095
-0.0001171180285343716
-0.00019152242313267784
-0.00018876670481422206
-0.0001226294651712832
-8.680512703135793e-05
-3.720219729915378e-05
-5.098078889143272e-05
-6.475938048371164e-05
-8.680512703135793e-05
-7.85379720759906e-05
-2.066788738841907e-05
4.133577477683014e-06
1.3778591592272275e-06
-1.240073243305171e-05
-4.133577477684346e-06
2.066788738841773e-05
-4.133577477684346e-06
-7.027081712062322e-05
-9.78280003051811e-05
-8.129369039444639e-05
-5.9247943846800084e-05
-0.00011160659189746003
-0.00018325526817731047
-0.00019703385976958942
-0.00026592681773098404
-0.0002962397192339978
-0.00032379690241855563
-0.0003513540856031135
-0.0003485983672846577
-0.00032379690241855563
-0.0003596212405584808
-0.00040646845197222917
-0.00043953707179369863
-0.00046433853665980087
-0.0004781171282520797
-0.00040922417029068495
-0.0003375754940108345
-0.0003816669871061273
-0.00045331566338597764
-0.0005056743114366376
-0.00044504850843061025
-0.0003844227054245829
-0.0004147356069275966
-0.00043953707179369863
-0.0004422927901121546
-0.0004422927901121546
-0.0003954455786984061
-0.000370644113832304
-0.0004312699168383313
-0.0005304757763027395
-0.0004698499732967123
-0.00037615555046921565
-0.00040646845197222917
-0.0004312699168383313
-0.00043402563515678713
-0.00043953707179369863
-0.0003982012970168618
-0.00045055994506752175
-0.0005056743114366376
-0.0004891400015259028
-0.00045331566338597764
-0.0004946514381628143
-0.00046709425497825643
-0.0004918957198443586
-0.0005029185931181816
-0.00046709425497825643
-0.0004946514381628143
-0.0005111857480735491
-0.0005442543678950186
-0.0005580329594872974
-0.0005525215228503861
-0.0005442543678950186
-0.0005525215228503861
-0.000577322987716488
-0.0005993687342641343
-0.0005663001144426648
-0.00048638428320744705
-0.0005139414663920051
-0.000629681635767148
-0.0006765288471808962
-0.0007178646219577333
-0.0006710174105439848
-0.00060212445258259
-0.0006269259174486923
-0.0007151089036392773
-0.000731643213550012
-0.0006792845654993521
-0.00065448310063325
-0.0006572388189517057
-0.0007426660868238351
-0.0007233760585946446
-0.0006737731288624405
-0.0007040860303654542
-0.0007564446784161143
-0.000795024734874495
-0.0007867575799191276
-0.0007509332417792025
-0.0007536889600976582
-0.0007729789883268486
-0.0008170704814221414
-0.0008170704814221414
-0.0007564446784161143
-0.0007564446784161143
-0.0007757347066453045
-0.0008776962844281688
-0.000899742030975815
-0.0008639176928358897
-0.0008446276646066993
-0.0008804520027466246
-0.0009300549324788287
-0.0009713907072556656
-0.0009658792706187539
-0.000952100679026475
-0.0009741464255741213
-0.001026505073624781
-0.0010871308766308087
-0.0011091766231784547
-0.0010788637216754414
-0.0010761080033569854
-0.0010733522850385297
-0.0011174437781338222
-0.0010457951018539718
-0.0010320165102616929
-0.0011009094682230872
-0.0010981537499046318
-0.0010678408484016179
-0.0009961921721217675
-0.0008143147631036856
-0.0006269259174486923
-0.0005414986495765627
-0.00047260569161516804
-0.00045882710002288904
-0.0006572388189517057
-0.0011009094682230872
-0.0016823660334172581
-0.0020736780346379807
-0.0020984794995040825
-0.0019083349355306328
-0.0017181903715571835
-0.0016162287937743196
-0.0015556029907682917
-0.0014756871595330745
-0.0013682141451132987
-0.0012827868772411696
-0.001233183947508965
-0.001274519722285802
-0.0013048326237888157
-0.0012497182574196996
-0.001186336736095217
-0.0011725581445029378
-0.0012194053559166863
-0.0012194053559166863
-0.0012166496375982305
-0.0011835810177767614
-0.001164290989547571
-0.0011890924544136726
-0.0011725581445029378
-0.001120199496452278
-0.0010788637216754414
-0.0010816194399938968
-0.001161535271229115
-0.001158779552910659
-0.001120199496452278
-0.0010347722285801487
-0.000976902143892577
-0.0009961921721217675
-0.0009934364538033119
-0.0009603678339818424
-0.0009217877775234612
-0.0008942305943389032
-0.000899742030975815
-0.0009107649042496381
-0.0008804520027466246
-0.0007895132982375835
-0.0007068417486839102
-0.000731643213550012
-0.0007922690165560394
-0.000745421805142291
-0.0006820402838178078
-0.0006131473258564133
-0.0005525215228503861
-0.00060212445258259
-0.0006489716639963384
-0.0005663001144426648
-0.0004781171282520797
-0.0004615828183413449
-0.0005194529030289164
-0.00040371273365377345
-0.0003155297474631883
-0.0003568655222400251
-0.0003458426489662019
-0.00031828546578164407
-0.0002962397192339978
-0.00023010247959105888
-0.00016947667658503157
-0.0001364080567635621
-0.00017223239490348733
-0.00023836963454642628
-0.00016947667658503157
-7.57822537575348e-05
-6.751509880216745e-05
-0.0001171180285343716
-0.0001364080567635621
-7.027081712062322e-05
-2.8935042343786426e-05
-8.680512703135793e-05
-0.00021632388799877996
-0.00024112535286488197
-0.00018876670481422206
-0.0001997895780880452
-0.00023285819790951464
-0.00032655262073701135
-0.0004422927901121546
-0.00045331566338597764
-0.00036237695887693665
-0.0003430869306477461
-0.00040371273365377345
-0.000447804226749066
-0.00047260569161516804
-0.00041749132524605234
-0.0003844227054245829
-0.00040646845197222917
-0.00043678135347524285
-0.00048638428320744705
-0.00043953707179369863
-0.00040371273365377345
-0.00040646845197222917
-0.0004781171282520797
-0.0004974071564812702
-0.00041197988860914084
-0.00036237695887693665
-0.0003982012970168618
-0.00043953707179369863
-0.00046709425497825643
-0.0004422927901121546
-0.0003982012970168618
-0.00039268986037995033
-0.0004312699168383313
-0.000447804226749066
-0.0004257584802014197
-0.0003596212405584808
-0.0003127740291447324
-0.00040371273365377345
-0.0005387429312581068
-0.0004918957198443586
-0.00040095701533531767
-0.0003871784237430386
-0.0004422927901121546
-0.0005222086213473721
-0.0005277200579842838
-0.00048638428320744705
-0.0005993687342641343
-0.0006958188754100868
-0.0007068417486839102
-0.000668261692225529
-0.00065448310063325
-0.0007674675516899373
-0.0008721848477912571
-0.0008776962844281688
-0.0008280933546959645
-0.0008225819180590531
-0.0008942305943389032
-0.000952100679026475
-0.0010017036087586794
-0.0009713907072556656
-0.0009272992141603728
-0.0008969863126573594
-0.000976902143892577
-0.0010843751583123526
-0.0011119323414969108
-0.0010072150453955906
-0.0009245434958419172
-0.0009824135805294888
-0.0010678408484016179
-0.0011064209048599993
-0.0010513065384908833
-0.0010072150453955906
-0.0010513065384908833
-0.0011146880598153664
-0.0011257109330891897
-0.001070596566720074
-0.0010457951018539718
-0.0010981537499046318
-0.0012111382009613188
-0.0012552296940566115
-0.0012056267643244074
-0.0011532681162737474
-0.0011284666514076451
-0.001156023834592203
-0.0011890924544136726
-0.0011146880598153664
-0.0010375279468986046
-0.001012726482032502
-0.0010457951018539718
-0.0011422452429999243
-0.0011064209048599993
-0.0009713907072556656
-0.0008942305943389032
-0.0008832077210650803
-0.0008501391012436108
-0.000668261692225529
-0.0003871784237430386
-0.0002466367895017936
-0.0004891400015259028
-0.0009658792706187539
-0.0015142672159914558
-0.001842197695887694
-0.0017595261463340204
-0.001610717357137408
-0.0016437859769588773
-0.0015390686808575578
-0.0012772754406042577
-0.0008969863126573594
-0.0006820402838178078
-0.0007757347066453045
-0.0008143147631036856
-0.0003816669871061273
-0.00032655262073701135
-0.0005084300297550932
-0.0006462159456778825
-0.0005414986495765627
-0.0003100183108262768
-0.0002190796063172357
-0.0003899341420614945
-0.0005663001144426648
-0.0005056743114366376
-0.0002549039444571609
-0.00012538518348973897
-0.0002190796063172357
-0.0003513540856031135
-0.00037891126878767127
-0.00020254529640650095
-3.169076066224221e-05
-9.78280003051811e-05
-0.000370644113832304
-0.0004891400015259028
-0.00029072828259708617
-1.5156450751507488e-05
1.2400732433050376e-05
-0.00017223239490348733
-0.0002190796063172357
-3.169076066224221e-05
0.0002493925078202481
0.00032379690241855427
9.507228198672396e-05
-9.507228198672531e-05
4.82250705729756e-05
0.00037891126878767
0.0005414986495765614
0.0004064684519722279
0.00014467521171892812
0.00017498811322194178
0.000547010086213473
0.0007399103685053779
0.0005635443961242077
0.00032655262073701005
0.0002989954375524522
0.0006048801709010444
0.0008639176928358884
0.0006958188754100854
0.0004009570153353164
0.0003293083390554659
0.0006296816357671465
0.001007215045395589
0.0009686349889372082
0.0006682616922255276
0.0005166971847104594
0.0007481775234607456
0.0010761080033569843
0.0011146880598153653
0.0008776962844281674
0.0006820402838178067
0.0008143147631036844
0.0011532681162737465
0.0012359396658274198
0.0009631235523002968
0.0006627502555886161
0.0006737731288624392
0.000985169298847943
0.0011505123979552907
0.000896986312657358
0.0004505599450675205
0.0007426660868238338
0.0009906807354848547
0.000858406256198977
0.0004974071564812689
0.0003623769588769353
0.0006269259174486908
0.0009355663691157388
0.0009190320592050041
0.000585590142671854
0.00037615555046921414
0.0005718115510795751
0.0008832077210650791
0.00092178777752346
0.0006351930724040583
0.00042300276188296266
0.0005690558327611192
0.000858406256198977
0.0009190320592050041
0.0006682616922255276
0.00042575848020141833
0.0005359872129396498
0.0008776962844281674
0.0010265050736247801
0.0008005361715114055
0.0004726056916151668
0.00041197988860913943
0.0007288874952315547
0.001007215045395589
0.0008721848477912556
0.0005249643396658268
0.00043126991683832994
0.0006655059739070718
0.0009162763408865484
0.0008446276646066979
0.0005139414663920035
0.000340331212329289
0.0005497658045319286
0.000855650537880521
0.0008832077210650791
0.0005497658045319286
0.0002741939726863501
0.0004064684519722279
0.0007426660868238338
0.0008198261997405958
0.000508430029755092
0.0001694766765850302
0.00024388107118333642
0.0006021244525825888
0.0007371546501869223
0.0004670942549782553
0.00016120952162966288
0.00015294236667429551
0.0004643385366597993
0.0006572388189517045
0.000508430029755092
0.00017774383154039756
8.68051270313566e-05
0.00038717842374303736
0.000679284565499351
0.0006159030441748677
0.0003072625925078196
0.00010609515526054714
0.0002934840009155406
0.0006159030441748677
0.0005745672693980309
-8.956084534981374e-05
4.271363393606403e-05
0.0003596212405584795
0.0005111857480735478
0.00023010247959105753
-6.200366216525588e-05
8.956084534981241e-05
0.0004422927901121532
0.0005277200579842825
0.0002879725642786291
-7.57822537575348e-05
-8.404940871290214e-05
0.0002686825360494386
0.0005773229877164866
0.00042851419851987416
-9.64501411459592e-06
-2.6179324025330647e-05
0.00042300276188296266
0.0007950247348744939
0.0007757347066453035
0.0005387429312581057
0.0004450485084306089
0.0007261317769130989
0.0008804520027466232
0.0005194529030289152
-0.0001997895780880452
-0.0008308490730144205
-0.0008253376363775088
-0.00041749132524605234
-0.00019152242313267784
-0.0003403312123292903
-0.0005084300297550932
-0.0002604153810940725
0.00011987374685282605
0.000263171099412527
8.956084534981241e-05
-0.00018601098649576628
-0.000150186648355841
0.00023561391622796914
0.0004808728465705341
0.00027143825436789435
-8.680512703135793e-05
-0.00011160659189746003
0.00017498811322194178
0.0003982012970168605
0.00024388107118333642
-7.85379720759906e-05
-0.0001997895780880452
-2.6179324025330647e-05
0.0002576596627756154
0.0003072625925078196
3.444647898069667e-05
-0.00018325526817731047
-4.8225070572976926e-05
0.0002493925078202481
0.0002741939726863501
1.5156450751506162e-05
-0.00021356816968032413
-0.0001198737468528274
0.00014191949340047234
0.00024388107118333642
-4.133577477684346e-06
-0.00029072828259708617
-0.00018601098649576628
0.00014743093003738393
0.00025214822613870384
-9.64501411459592e-06
-3.720219729915378e-05
0.0002549039444571596
0.0005056743114366363
0.0004615828183413437
0.00027970540932326175
0.000263171099412527
0.0006214144808117793
0.0010237493553063243
0.0010182379186694126
0.0005966130159456772
0.0004009570153353164
0.0007592003967345686
0.0012276725108720525
0.0012827868772411677
0.0009631235523002968
0.0006847960021362622
0.0008887191577019906
0.0013489241168841066
0.0014067942015716782
0.0010127264820325008
0.0006655059739070718
0.000753688960097657
0.0012194053559166852
0.0015280458075837332
0.0012138939192797731
0.0007867575799191265
0.0007895132982375822
0.001244206820782787
0.0015060000610360867
0.0013489241168841066
0.0009024977492942696
0.0007729789883268476
0.0011339780880445555
0.0014811985961699847
0.0013158554970626377
0.0009107649042496368
0.0007206203402761877
0.0010402836652170589
0.00146466428625925
0.0014260842298008686
0.000971390707255664
0.0006434602273594254
0.0008253376363775078
0.001285542595559624
0.0014095499198901345
0.0010154822003509568
0.0006903074387731741
0.0008776962844281674
0.0012993211871519031
0.001492221469443808
0.001169802426184481
0.0007619561150530243
0.0007867575799191265
0.0012359396658274198
0.0015280458075837332
0.001285542595559624
0.0008391162279697863
0.0007729789883268476
0.0011918481727321271
0.0015390686808575565
0.0014260842298008686
0.0009355663691157388
0.0007261317769130989
0.001401282764934767
0.0014150613565270462
0.0010209936369878683
0.0007371546501869223
0.0009355663691157388
0.0013434126802471958
0.0014453742580300595
0.0010705965667200726
0.000767467551689936
0.0009438335240711064
0.0013544355535210185
0.001492221469443808
0.001169802426184481
0.0007564446784161128
0.0007068417486839086
0.001051306538490882
0.001376481300068665
0.0011615352712291134
0.0007151089036392759
0.0006048801709010444
0.000971390707255664
0.0013048326237888143
0.0011918481727321271
0.0007343989318684667
0.000560788677805752
0.0008749405661097116
0.0012166496375982292
0.0011890924544136717
0.0007840018616006707
0.0005111857480735478
0.0006985745937285414
0.0011532681162737465
0.0012634968490119777
0.0008336047913328749
0.00042300276188296266
0.0005580329594872961
0.0009906807354848547
0.0011505123979552907
0.0008418719462882423
0.00036788839551384685
0.0003982012970168605
0.000982413580529487
0.001321366933699549
0.0009906807354848547
0.0004478042267490647
0.00037064411383230263
0.0007840018616006707
0.0010843751583123511
0.0008914748760204465
0.0004450485084306089
0.00037064411383230263
0.0008225819180590517
0.001332389806973372
0.0014095499198901345
0.0010127264820325008
0.0007151089036392759
0.0008308490730144192
0.0009024977492942696
0.0005029185931181804
-0.0001777438315403989
-0.00048362856488899143
-0.0001777438315403989
0.0004588271000228878
0.0007840018616006707
0.00048362856488898997
0.00011711802853437029
0.0007977804531929496
0.0010981537499046305
0.0008225819180590517
0.00035410980392156795
0.00031001831082627527
0.0007840018616006707
0.0011753138628213923
0.00097414642557412
0.0004450485084306089
0.00023285819790951333
0.0005718115510795751
0.0009548563973449294
0.0008253376363775078
0.00041197988860913943
0.00022459104295414594
0.0005249643396658268
0.0009686349889372082
0.0010182379186694126
0.0006434602273594254
0.00038993414206149314
0.0006710174105439835
0.0011642909895475692
0.0012772754406042562
0.0008749405661097116
0.0004726056916151668
0.0005773229877164866
0.0011064209048599978
0.0013571912718394743
0.0010595736934462493
0.0006048801709010444
0.0005773229877164866
0.001037527946898603
0.0014095499198901345
0.0012497182574196988
0.0007592003967345686
0.000701330312046997
0.001178069581139848
0.0016492974135957881
0.0015666258640421142
0.0010457951018539703
0.0008473833829251538
0.0012359396658274198
0.0017319689631494616
0.0017181903715571825
0.0012607411306935217
0.001037527946898603
0.001335145525291828
0.001897312062256809
0.0021508381475547405
0.0017705490196078426
0.0013406569619287395
0.0015225343709468217
0.0020571437247272444
0.0022417768520637815
0.001833930540932325
0.0013406569619287395
0.001324122652018005
0.001800861921110856
0.0021012352178225373
0.0018477091325246043
0.0013737255817502093
0.0012965654688334468
0.0016851217517357133
0.0020571437247272444
0.0018780220340276189
0.0011091766231784534
0.0013930156099793995
0.0018366862592507814
0.0018091290760662239
0.001318611215381093
0.0010237493553063243
0.0012800311589227123
0.0017540147096971076
0.0018311748226138695
0.0014315956664377805
0.0010430393835355147
0.0011560238345922017
0.001630007385366597
0.0018146405127031347
0.0014563971313038828
0.001048550820172426
0.0010981537499046305
0.0016052059205004952
0.0018835334706645297
0.0015390686808575565
0.0010843751583123511
0.0010237493553063243
0.0014729314412146172
0.0018835334706645297
0.0016520531319142435
0.0010816194399938957
0.0008528948195620654
0.0011394895246814672
0.0015418243991760121
0.0015225343709468217
0.0011174437781338207
0.0008611619745174325
0.0010816194399938957
0.0015060000610360867
0.0016520531319142435
0.0013020769054703587
0.0009906807354848547
0.0011422452429999228
0.00151702293430991
0.0015500915541313794
0.001169802426184481
0.000806047608148317
0.0009383220874341949
0.0014756871595330732
0.0017677933012893864
0.001492221469443808
0.0010430393835355147
0.0010044593270771337
0.0014315956664377805
0.00172645752651255
0.0015087557793545424
0.001128466651407644
0.001007215045395589
0.0013268783703364606
0.0016410302586404204
0.00151702293430991
0.001048550820172426
0.0007895132982375822
0.0010292607919432355
0.0014067942015716782
0.0013571912718394743
0.0010292607919432355
0.00081707048142214
0.000960367833981841
0.0012910540321965354
0.0014205727931639574
0.0007316432135500107
0.0007564446784161128
0.0011312223697260999
0.0013434126802471958
0.0010265050736247801
0.0006434602273594254
0.0006351930724040583
0.0009879250171663987
0.0012827868772411677
0.0011450009613183788
0.0007977804531929496
0.0007481775234607456
0.0011532681162737465
0.0016520531319142435
0.0017319689631494616
0.0012138939192797731
0.0006737731288624392
0.0005222086213473709
0.0005883458609903097
0.000637948790722514
0.0003844227054245816
0.00020254529640649968
0.00042575848020141833
0.0008749405661097116
0.0010623294117647053
0.0008776962844281674
0.0006544831006332488
0.000679284565499351
0.000971390707255664
0.0010816194399938957
0.0008225819180590517
0.0005277200579842825
0.0005718115510795751
0.0009410778057526506
0.001180825299458304
0.0009631235523002968
0.0006296816357671465
0.0006599945372701603
0.001007215045395589
0.001246962539101243
0.0011312223697260999
0.0008088033264667726
0.0006214144808117793
0.0008418719462882423
0.0011835810177767598
0.0011450009613183788
0.0008115590447852286
0.0005828344243533982
0.0007481775234607456
0.0010678408484016168
0.001128466651407644
0.000896986312657358
0.0006655059739070718
0.0007151089036392759
0.0009934364538033101
0.0010953980315861747
0.0009190320592050041
0.000676528847180895
0.0007592003967345686
0.0010402836652170589
0.0011753138628213923
0.0010154822003509568
0.0007233760585946433
0.000687551720454718
0.000960367833981841
0.0011174437781338207
0.0008088033264667726
0.0007343989318684667
0.0009906807354848547
0.0012524739757381546
0.0012331839475089635
0.0009465892423895617
0.0007977804531929496
0.0009107649042496368
0.0011863367360952157
0.0012690082856488892
0.0009548563973449294
0.0007261317769130989
0.000858406256198977
0.0010843751583123511
0.0012304282291905084
0.0010816194399938957
0.0007812461432822147
0.0008225819180590517
0.0010788637216754397
0.0012662525673304335
0.0011312223697260999
0.0008336047913328749
0.0007564446784161128
0.0010237493553063243
0.0012304282291905084
0.0011064209048599978
0.0007729789883268476
0.000599368734264133
0.0008032918898298613
0.0010320165102616916
0.000960367833981841
0.0006655059739070718
0.000560788677805752
0.0008032918898298613
0.0010402836652170589
0.0009658792706187528
0.0006682616922255276
0.0004533156633859763
0.0005938572976272215
0.0008832077210650791
0.0009521006790264736
0.0007343989318684667
0.0005497658045319286
0.0006131473258564118
0.0008804520027466232
0.0010347722285801472
0.0008501391012436096
0.0005359872129396498
0.0005635443961242077
0.0008776962844281674
0.0010761080033569843
0.0009107649042496368
0.0006269259174486908
0.0005718115510795751
0.0007481775234607456
0.0009272992141603715
0.0008473833829251538
0.0005966130159456772
0.0004891400015259016
0.0007040860303654528
0.000998947890440222
0.000985169298847943
0.000676528847180895
0.0004588271000228878
0.000960367833981841
0.001048550820172426
0.0007812461432822147
0.0005139414663920035
0.0006131473258564118
0.0009796578622110316
0.0011229552147707324
0.0008997420309758136
0.0006324373540856024
0.000637948790722514
0.0009272992141603715
0.001103665186541542
0.0008887191577019906
0.0006048801709010444
0.0005525215228503846
0.0007757347066453035
0.0009879250171663987
0.0008804520027466232
0.0005773229877164866
0.0004450485084306089
0.0006489716639963371
0.0009024977492942696
0.0009190320592050041
0.0006296816357671465
0.0004064684519722279
0.0006131473258564118
0.0009052534676127252
0.0009576121156633854
0.0006489716639963371
0.00038717842374303736
0.0004891400015259016
0.0008804520027466232
0.0010788637216754397
0.000960367833981841
0.0008391162279697863
0.0010044593270771337
0.0014426185397116034
0.001671343160143434
0.001324122652018005
0.0006214144808117793
7.02708171206219e-05
-6.889295796140132e-06
0.00018601098649576498
0.0001970338597695881
0.00010333943694209132
7.02708171206219e-05
0.00032655262073701005
0.0006903074387731741
0.0007647118333714802
0.0005745672693980309
0.0003816669871061258
0.000469849973296711
0.0008914748760204465
0.001089886594949263
0.0008832077210650791
0.0006682616922255276
0.0007729789883268476
0.0009548563973449294
0.0009879250171663987
0.0007619561150530243
0.0005001628747997245
0.00040371273365377215
0.000392689860379949
0.0002741939726863501
-0.00016947667658503157
-0.0007977804531929508
-0.001924869245441368
-0.002762607614251928
-0.003939299336232547
-0.005405341481651026
-0.006719819119554438
-0.007709121995880064
-0.008714959182116427
-0.009990856763561455
-0.011335647302967879
-0.012487537560082402
-0.013300474464026856
-0.013215047196154723
-0.012415888883802547
-0.01138249451438163
-0.010219581383993287
-0.008761806393530176
-0.007513465995269703
-0.006642659006637673
-0.00599230948348211
-0.005215196917677577
-0.004322344182497903
-0.0033082398413061724
-0.0018008619211108575
-0.0005029185931181816
0.0003348197756923775
0.0011312223697260999
0.0020681665980010673
0.0027929205157549396
0.003181476798657205
0.0034625600671396952
0.0036830175326161584
0.00374088761730373
0.003633414602883954
0.003120850995651178
0.002318936964980544
0.001660320286869611
0.0013020769054703587
0.001089886594949263
0.0007288874952315547
0.00014743093003738393
-0.00035410980392156926
-0.0006186587624933248
-0.000795024734874495
-0.0010733522850385297
-0.0014591528496223395
-0.0017181903715571835
-0.0015996944838635846
-0.001161535271229115
-0.0007895132982375835
-0.0005800787060349438
-0.0005249643396658282
-0.00023561391622797047
0.0002824611276417174
0.0006627502555886161
0.0006434602273594254
0.000508430029755092
0.0005911015793087656
0.0008749405661097116
0.0011587795529106576
0.0011422452429999228
0.000908009185931181
0.0007592003967345686
0.0009438335240711064
0.0012221610742351409
0.0012331839475089635
0.0007729789883268476
0.000896986312657358
0.0012194053559166852
0.0013434126802471958
0.0010788637216754397
0.0007647118333714802
0.0008143147631036844
0.0011587795529106576
0.0013709698634317533
0.0011973596093690386
0.0008914748760204465
0.0008611619745174325
0.0011201994964522765
0.0013020769054703587
0.0012083824826428621
0.0009245434958419158
0.0008253376363775078
0.0010292607919432355
0.0012359396658274198
0.0011973596093690386
0.000908009185931181
0.0007729789883268476
0.0010347722285801472
0.001285542595559624
0.0012497182574196988
0.0008942305943389022
0.000687551720454718
0.0008611619745174325
0.001178069581139848
0.0011946038910505827
0.0008997420309758136
0.000676528847180895
0.0007481775234607456
0.0010320165102616916
0.0012083824826428621
0.0009879250171663987
0.0006462159456778814
0.0006737731288624392
0.0010320165102616916
0.0011835810177767598
0.000982413580529487
0.0007261317769130989
0.0007206203402761877
0.000960367833981841
0.0011918481727321271
0.0010705965667200726
0.0007399103685053779
0.0006076358892195001
0.0008363605096513305
0.001125710933089188
0.0011753138628213923
0.000971390707255664
0.0009355663691157388
0.0012414511024643313
0.0015197786526283655
0.0013048326237888143
0.0006296816357671465
-6.889295796140132e-06
-7.302653543907902e-05
0.00026592681773098274
0.000469849973296711
0.0004009570153353164
0.00024663678950179223
0.00036788839551384685
0.0007867575799191265
0.0011312223697260999
0.0007977804531929496
0.0007509332417792012
0.0010733522850385282
0.0013075883421072702
0.0011009094682230861
0.0007371546501869223
0.0006131473258564118
0.000908009185931181
0.001257985412375066
0.0012414511024643313
0.0008804520027466232
0.000637948790722514
0.0008308490730144192
0.0012331839475089635
0.001318611215381093
0.00097414642557412
0.0006820402838178067
0.0007895132982375822
0.0011394895246814672
0.0012993211871519031
0.0010017036087586776
0.0006682616922255276
0.0007371546501869223
0.0011201994964522765
0.0013461683985656512
0.0011560238345922017
0.0008280933546959632
0.0008032918898298613
0.0011064209048599978
0.0013544355535210185
0.001257985412375066
0.0009107649042496368
0.0008198261997405958
0.0011009094682230861
0.0014867100328068963
0.001489465751125352
0.0011422452429999228
0.000971390707255664
0.0012359396658274198
0.0015721373006790259
0.0015748930189974813
0.0012552296940566102
0.0009796578622110316
0.0011201994964522765
0.0015060000610360867
0.0016162287937743183
0.0013406569619287395
0.001048550820172426
0.001103665186541542
0.00146466428625925
0.0016933889066910802
0.0015032443427176307
0.0011394895246814672
0.0010733522850385282
0.0013930156099793995
0.0016548088502326991
0.0015280458075837332
0.001136733806363011
0.0010154822003509568
0.0013103440604257258
0.0016685874418249785
0.0015996944838635836
0.0011615352712291134
0.0009438335240711064
0.001136733806363011
0.001492221469443808
0.001103665186541542
0.0007619561150530243
0.0008639176928358884
0.0013020769054703587
0.0013875041733424878
0.0010430393835355147
0.0007343989318684667
0.0008143147631036844
0.0011835810177767598
0.0013489241168841066
0.001048550820172426
0.0006351930724040583
0.000676528847180895
0.0010981537499046305
0.0013902598916609437
0.0012386953841458756
0.000753688960097657
0.0006296816357671465
0.0009355663691157388
0.0012634968490119777
0.0011753138628213923
0.0007812461432822147
0.0006462159456778814
0.0009107649042496368
0.0012359396658274198
0.0012028710460059502
0.0008859634393835348
0.0006489716639963371
0.0008253376363775078
0.0011918481727321271
0.0012552296940566102
0.0009162763408865484
0.000637948790722514
0.0007592003967345686
0.0011229552147707324
0.0012827868772411677
0.0010292607919432355
0.0007151089036392759
0.0007592003967345686
0.0010788637216754397
0.001324122652018005
0.0011339780880445555
0.0007454218051422897
0.0006462159456778814
0.0009631235523002968
0.0012331839475089635
0.0010788637216754397
0.0007233760585946433
0.0005883458609903097
0.0008225819180590517
0.0011505123979552907
0.001125710933089188
0.0007702232700083917
0.0005029185931181804
0.0007095974670023644
0.0010816194399938957
0.0011229552147707324
0.0008225819180590517
0.0005359872129396498
0.0006710174105439835
0.0010182379186694126
0.001103665186541542
0.0008639176928358884
0.0006021244525825888
0.0011146880598153653
0.0014398628213931478
0.001379237018387121
0.0012028710460059502
0.001178069581139848
0.0012552296940566102
0.0011091766231784534
0.0005111857480735478
-0.0001226294651712832
-0.0002080567330434125
0.00015845380331120705
0.0005966130159456772
0.0006847960021362622
0.0004422927901121532
0.00032379690241855427
0.000585590142671854
0.000960367833981841
0.0010595736934462493
0.0007619561150530243
0.0004891400015259016
0.0005773229877164866
0.000908009185931181
0.0010843751583123511
0.0008418719462882423
0.0005304757763027383
0.0006682616922255276
0.0010871308766308072
0.0012882983138780798
0.0010816194399938957
0.0007123531853208202
0.000676528847180895
0.000971390707255664
0.0012276725108720525
0.0010981537499046305
0.000717864621957732
0.0005883458609903097
0.0008418719462882423
0.0011753138628213923
0.0012138939192797731
0.0008694291294728002
0.0006296816357671465
0.0008859634393835348
0.0012634968490119777
0.0013130997787441814
0.000949344960708018
0.0006627502555886161
0.0008363605096513305
0.0012166496375982292
0.0013434126802471958
0.0010678408484016168
0.000753688960097657
0.0008391162279697863
0.0011890924544136717
0.001318611215381093
0.0010953980315861747
0.0008115590447852286
0.0007840018616006707
0.001089886594949263
0.0013902598916609437
0.0012607411306935217
0.0008721848477912556
0.0007784904249637591
0.0010457951018539703
0.0013406569619287395
0.0012910540321965354
0.0009658792706187528
0.0011229552147707324
0.0015060000610360867
0.0014508856946669714
0.0010843751583123511
0.0008666734111543443
0.001051306538490882
0.0013571912718394743
0.0014067942015716782
0.0010705965667200726
0.0007950247348744939
0.0008721848477912556
0.0012497182574196988
0.0013709698634317533
0.0010705965667200726
0.0007729789883268476
0.0007564446784161128
0.0010320165102616916
0.0012910540321965354
0.0011505123979552907
0.0007261317769130989
0.0005635443961242077
0.0008032918898298613
0.001103665186541542
0.0010347722285801472
0.0006958188754100854
0.0005001628747997245
0.0007481775234607456
0.0010816194399938957
0.0010154822003509568
0.0006820402838178067
0.0004891400015259016
0.0006351930724040583
0.0009245434958419158
0.0010237493553063243
0.0007206203402761877
0.0004340256351567857
0.0005166971847104594
0.0008115590447852286
0.00092178777752346
0.000687551720454718
0.0004505599450675205
0.0004670942549782553
0.0007399103685053779
0.0009162763408865484
0.0007288874952315547
0.0003954455786984048
0.0004064684519722279
0.0007784904249637591
0.001037527946898603
0.00092178777752346
0.0006048801709010444
0.0004450485084306089
0.0006985745937285414
0.0010402836652170589
0.0010540622568093376
0.0007454218051422897
0.0005277200579842825
0.0006627502555886161
0.0009245434958419158
0.0008914748760204465
0.0005938572976272215
0.000340331212329289
0.0004643385366597993
0.0007481775234607456
0.000806047608148317
0.0003623769588769353
0.0003733998321507585
0.0006214144808117793
0.0007261317769130989
0.000585590142671854
0.0003293083390554659
0.00026592681773098274
0.0004974071564812689
0.0007757347066453035
0.0007426660868238338
0.0004891400015259016
0.00035135408560311223
0.0005359872129396498
0.0008280933546959632
0.0008859634393835348
0.0006820402838178067
0.0006544831006332488
0.0009879250171663987
0.0012607411306935217
0.0010678408484016168
0.00040371273365377215
-0.00029072828259708617
-0.00060212445258259
-0.00043402563515678713
-0.0001336523384451063
-0.00012814090180819475
-0.0001612095216296642
-6.889295796140132e-06
0.0002576596627756154
0.00038993414206149314
0.000365132677195391
0.00024112535286488067
0.00023010247959105753
0.0003485983672846564
0.0005139414663920035
0.0004808728465705341
0.0002879725642786291
0.0002576596627756154
0.00042024704356450677
0.0006241701991302349
0.000637948790722514
0.0004615828183413437
0.0003623769588769353
0.0004946514381628131
0.0006186587624933234
0.0006407045090409697
0.0005525215228503846
0.00042575848020141833
0.0004974071564812689
0.0007343989318684667
0.0008032918898298613
0.0006489716639963371
0.00042575848020141833
0.0004009570153353164
0.0006186587624933234
0.0007343989318684667
0.0006737731288624392
0.0005139414663920035
0.0005580329594872961
0.000717864621957732
0.0007757347066453035
0.0006930631570916297
0.000547010086213473
0.0005387429312581057
0.0006517273823147929
0.0007922690165560381
0.0007509332417792012
0.0006517273823147929
0.0007123531853208202
0.0009135206225680924
0.0008914748760204465
0.0007288874952315547
0.0006710174105439835
0.0007481775234607456
0.0008446276646066979
0.0008749405661097116
0.000767467551689936
0.000637948790722514
0.0006710174105439835
0.0006820402838178067
0.0006572388189517045
0.0006434602273594254
0.0006159030441748677
0.0005828344243533982
0.0006462159456778814
0.000767467551689936
0.000767467551689936
0.0006627502555886161
0.0005663001144426635
0.0005663001144426635
0.0006269259174486908
0.0006407045090409697
0.0005111857480735478
0.0004505599450675205
0.0004781171282520784
0.0004781171282520784
0.0004422927901121532
0.00035135408560311223
0.0003182854657816428
0.00027970540932326175
0.00020805673304341124
0.00017498811322194178
0.0001556980849927513
0.00010609515526054714
0.0001556980849927513
0.00020530101472495543
0.00019427814145113231
0.00018049954985885336
0.00015018664835583973
0.00011711802853437029
0.00013089662012664922
0.00012262946517128183
0.00011436231021591448
0.00015018664835583973
0.00014467521171892812
0.00016396523994811866
0.00021632388799877858
0.000210812451361867
0.00020805673304341124
0.00020254529640649968
0.00024663678950179223
0.000263171099412527
0.0002493925078202481
0.00023010247959105753
0.00016120952162966288
0.00016120952162966288
0.00020805673304341124
0.0002190796063172344
0.00020805673304341124
0.000210812451361867
0.0002576596627756154
0.0003375754940108332
0.00027970540932326175
0.0002190796063172344
0.0002576596627756154
0.00030450687418936376
0.0002989954375524522
0.0002549039444571596
0.00019978957808804387
0.00012814090180819342
0.00018049954985885336
0.0002686825360494386
0.00020530101472495543
0.00011987374685282605
0.00011436231021591448
0.00012262946517128183
0.00013365233844510492
0.00014743093003738393
0.00013365233844510492
0.00010609515526054714
0.00010058371862363556
0.00012814090180819342
0.00010333943694209132
5.373650720988717e-05
0.00010885087357900291
0.0001832552681773092
0.00024663678950179223
0.0002989954375524522
0.0003127740291447311
0.0003623769588769353
0.0005966130159456772
0.0007812461432822147
0.0006682616922255276
0.00023285819790951333
-0.00030726259250782084
-0.000629681635767148
-0.0006269259174486923
-0.0005249643396658282
-0.0004312699168383313
-0.00035410980392156926
-0.00021356816968032413
1.7912169069961946e-05
0.00019152242313267648
0.00017498811322194178
7.02708171206219e-05
4.82250705729756e-05
0.00014743093003738393
0.0002576596627756154
0.00027143825436789435
0.00024663678950179223
0.0001970338597695881
0.00013089662012664922
0.00018876670481422076
0.00024112535286488067
0.00014467521171892812
8.956084534981241e-05
0.00013089662012664922
0.0002383696345464249
0.0002824611276417174
0.00022734676127260172
0.000172232394903486
0.00014743093003738393
0.00019427814145113231
0.0002741939726863501
0.00018049954985885336
5.649222552834297e-05
0.00013640805676356078
0.0002135681696803228
0.00025214822613870384
0.00024112535286488067
0.00020530101472495543
0.00024112535286488067
0.0002741939726863501
0.00024112535286488067
0.000172232394903486
0.00013089662012664922
0.00017498811322194178
0.00027143825436789435
0.0003127740291447311
0.00020805673304341124
0.00013089662012664922
0.00020530101472495543
0.0002769496910048059
0.00031001831082627527
0.00024112535286488067
0.00013916377508201656
0.00011987374685282605
0.00029072828259708476
0.0003293083390554659
0.00023561391622796914
0.0002218353246356902
0.0002576596627756154
0.0003430869306477448
0.0003954455786984048
0.0003485983672846564
0.0002879725642786291
0.0002989954375524522
0.0002879725642786291
0.00032379690241855427
0.0003375754940108332
0.0002383696345464249
0.00015294236667429551
0.00022459104295414594
0.00032655262073701005
0.0002686825360494386
0.0002190796063172344
0.00018601098649576498
0.00017774383154039756
0.00017774383154039756
0.00021632388799877858
0.00022459104295414594
0.0001253851834897376
6.751509880216611e-05
0.00010058371862363556
0.00015845380331120705
0.00013365233844510492
5.373650720988717e-05
-9.64501411459592e-06
9.782800030517979e-05
0.00023561391622796914
0.00023010247959105753
0.00015845380331120705
0.00019427814145113231
0.0003072625925078196
0.00032655262073701005
0.0002852168459601733
0.00014743093003738393
0.00011987374685282605
0.00019427814145113231
0.0003182854657816428
0.0004533156633859763
0.000392689860379949
0.00031001831082627527
0.0004533156633859763
0.0005139414663920035
0.0004946514381628131
0.0004450485084306089
0.0005111857480735478
0.0006351930724040583
0.0006627502555886161
0.0004863842832074457
0.0002576596627756154
0.000210812451361867
0.00027143825436789435
0.0002686825360494386
0.00018601098649576498
5.9247943846798756e-05
-9.507228198672531e-05
-0.00019427814145113364
-0.0002521482261387052
-0.00032655262073701135
-0.0005056743114366376
-0.0005222086213473721
-0.00040922417029068495
-0.0003844227054245829
-0.0004285141985198755
-0.0005222086213473721
-0.0005663001144426648
-0.0004946514381628143
-0.0004285141985198755
-0.0004202470435645082
-0.00048087284657053543
-0.0005277200579842838
-0.0005332314946211955
-0.00045055994506752175
-0.0003982012970168618
-0.00040095701533531767
-0.0004422927901121546
-0.00037891126878767127
-0.0002549039444571609
-0.0001171180285343716
-0.00010333943694209268
-5.098078889143272e-05
0.00011711802853437029
0.00032379690241855427
0.0003127740291447311
-7.302653543907902e-05
-0.0007013303120469984
-0.0011422452429999243
-0.0011422452429999243
-0.0009576121156633864
-0.0007784904249637603
-0.0006737731288624405
-0.0005993687342641343
-0.0004560713817044334
-0.0002824611276417188
-0.00020254529640650095
-0.0002852168459601746
-0.0004285141985198755
-0.0003871784237430386
-0.0002549039444571609
-0.0002080567330434125
-0.00021356816968032413
-0.00023010247959105888
-0.0002604153810940725
-0.00023285819790951464
-0.00019152242313267784
-0.00041197988860914084
-0.00036788839551384826
-0.00019152242313267784
-0.00012538518348973897
-0.00017498811322194308
-0.00022459104295414727
-0.00019427814145113364
-0.00017223239490348733
-5.6492225528344285e-05
-2.342360570687485e-05
-0.00017498811322194308
-0.00027419397268635144
-0.00014191949340047367
-5.098078889143272e-05
-0.0001226294651712832
-0.00024388107118333775
-0.00029348400091554195
-0.00019703385976958942
-5.3736507209888505e-05
1.2400732433050376e-05
-6.751509880216745e-05
-0.00019703385976958942
-0.00023836963454642628
-0.00017223239490348733
-4.8225070572976926e-05
3.444647898069667e-05
4.133577477683014e-06
-2.6179324025330647e-05
2.8935042343785094e-05
0.00014743093003738393
0.00018049954985885336
0.00015845380331120705
0.00013365233844510492
0.00016396523994811866
0.0002824611276417174
0.0003733998321507585
0.0004670942549782553
0.0005414986495765614
0.0005552772411688404
0.000637948790722514
0.0006462159456778814
0.0006572388189517045
0.000717864621957732
0.0008005361715114055
0.0007729789883268476
0.0006434602273594254
0.0005001628747997245
0.00032104118410009855
0.0001970338597695881
-9.64501411459592e-06
-0.00023561391622797047
-0.0004422927901121546
-0.0006076358892195017
-0.0007013303120469984
-0.0007757347066453045
-0.0008363605096513318
-0.0008528948195620666
-0.0008611619745174342
-0.000899742030975815
-0.0008694291294728014
-0.0008060476081483182
-0.000731643213550012
-0.0007095974670023658
-0.0007592003967345699
-0.0006241701991302363
-0.0005828344243533996
-0.0005690558327611206
-0.0005332314946211955
-0.0004918957198443586
-0.0004918957198443586
-0.00043953707179369863
-0.0004202470435645082
-0.00040371273365377345
-0.00043953707179369863
-0.00040646845197222917
-0.0003568655222400251
-0.000370644113832304
-0.0004285141985198755
-0.00043953707179369863
-0.0003982012970168618
-0.00040095701533531767
-0.0004285141985198755
-0.00043953707179369863
-0.000423002761882964
-0.0003651326771953924
-0.0003568655222400251
-0.0003485983672846577
-0.00032655262073701135
-0.0003430869306477461
-0.0002824611276417188
-0.00014191949340047367
-0.00019152242313267784
-0.0002631710994125282
-0.00026592681773098404
-0.0003430869306477461
-0.00036788839551384826
-0.0003348197756923787
-0.0003100183108262768
-0.0002989954375524536
-0.00039268986037995033
-0.0004422927901121546
-0.0004147356069275966
-0.0004312699168383313
-0.00046709425497825643
-0.00043953707179369863
-0.00040095701533531767
-0.0004202470435645082
-0.0004781171282520797
-0.0005304757763027395
-0.0005580329594872974
-0.0003871784237430386
-0.00030175115587090934
-0.0003458426489662019
-0.0004781171282520797
-0.0005745672693980323
-0.00043678135347524285
-0.0002218353246356915
-0.00010885087357900426
-8.404940871290214e-05
5.649222552834297e-05
0.0002383696345464249
0.00014743093003738393
-0.0003651326771953924
-0.0009576121156633864
-0.0014205727931639587
-0.0015197786526283668
-0.00130207690547036
-0.0011422452429999243
-0.0010457951018539718
-0.0008804520027466246
-0.0006958188754100868
-0.0006737731288624405
-0.0006517273823147941
-0.0006820402838178078
-0.0006241701991302363
-0.0005084300297550932
-0.00045882710002288904
-0.0005883458609903113
-0.0006517273823147941
-0.0006186587624933248
-0.0005442543678950186
-0.0004891400015259028
-0.0005166971847104609
-0.0005470100862134743
-0.0005222086213473721
-0.0004698499732967123
-0.00040922417029068495
-0.0004147356069275966
-0.000500162874799726
-0.0005663001144426648
-0.0005029185931181816
-0.00036237695887693665
-0.00031828546578164407
-0.0004202470435645082
-0.00045882710002288904
-0.00047260569161516804
-0.0004422927901121546
-0.0003816669871061273
-0.0003568655222400251
-0.00040646845197222917
-0.00041749132524605234
-0.00041197988860914084
-0.0003982012970168618
-0.00030175115587090934
-0.0003568655222400251
-0.00039268986037995033
-0.0003320640573739229
-0.0002549039444571609
-0.00027694969100480727
-0.00031828546578164407
-0.00030726259250782084
-0.0002604153810940725
-0.00010609515526054846
-0.0001226294651712832
-0.0002631710994125282
-0.0003403312123292903
-0.00030175115587090934
-0.0001612095216296642
-3.720219729915378e-05
-8.680512703135793e-05
-0.00022459104295414727
-0.0002604153810940725
-0.00012814090180819475
1.7912169069961946e-05
-4.2713633936065354e-05
-0.00020254529640650095
-0.00024112535286488197
-7.302653543907902e-05
7.853797207598924e-05
-3.4446478980697995e-05
-0.00019427814145113364
-0.00018876670481422206
-0.00018601098649576628
-0.00015569808499275262
-0.00015294236667429682
-0.00027970540932326305
-0.0003375754940108345
-0.0002549039444571609
-0.0002604153810940725
-0.00039268986037995033
-0.0004918957198443586
-0.0004285141985198755
-0.0003348197756923787
-0.0003155297474631883
-0.000447804226749066
-0.0005525215228503861
-0.00048087284657053543
-0.00036788839551384826
-0.0002962397192339978
-0.0003127740291447324
-0.0004257584802014197
-0.0005139414663920051
-0.00045055994506752175
-0.0002686825360494398
-0.0002604153810940725
-0.00045055994506752175
-0.0005056743114366376
-0.0004312699168383313
-0.00036788839551384826
-0.0003844227054245829
-0.0004615828183413449
-0.0004615828183413449
-0.00035410980392156926
-0.00025765966277561676
-0.00039268986037995033
-0.00045882710002288904
-0.000423002761882964
-0.0003568655222400251
-0.00023836963454642628
-0.00025765966277561676
-0.0003982012970168618
-0.00045882710002288904
-0.00043953707179369863
-0.0003155297474631883
-0.00032379690241855563
-0.0004285141985198755
-0.000500162874799726
-0.00040922417029068495
-0.00025765966277561676
-0.0002549039444571609
-0.0003899341420614945
-0.0004422927901121546
-0.00043953707179369863
-0.0003871784237430386
-0.0003513540856031135
-0.000447804226749066
-0.0005855901426718552
-0.0006214144808117806
-0.0004918957198443586
-0.0003899341420614945
-0.00037891126878767127
-0.00047536140993362393
-0.0005552772411688418
-0.0004698499732967123
-0.0003045068741893651
-0.0002604153810940725
-0.0003375754940108345
-0.0003485983672846577
-0.00016672095826657574
0.00014743093003738393
0.00026592681773098274
0.00015294236667429551
-0.000447804226749066
-0.000874940566109713
-0.001233183947508965
-0.0012938097505149923
-0.0013048326237888157
-0.0011450009613183801
-0.0007812461432822162
-0.0005277200579842838
-0.00046709425497825643
-0.0005525215228503861
-0.0005690558327611206
-0.00045882710002288904
-0.0003513540856031135
-0.00036237695887693665
-0.00041197988860914084
-0.000370644113832304
-0.00030175115587090934
-0.0002824611276417188
-0.00025765966277561676
-0.0003045068741893651
-0.0003210411841000998
-0.0003210411841000998
-0.0002521482261387052
-0.00018876670481422206
-0.0002824611276417188
-0.0003844227054245829
-0.0003403312123292903
-0.0002218353246356915
-0.00018325526817731047
-0.00026592681773098404
-0.0003596212405584808
-0.0003430869306477461
-0.0002108124513618684
-0.00016947667658503157
-0.00019703385976958942
-0.00025765966277561676
-0.00023285819790951464
-0.00012538518348973897
-1.7912169069963278e-05
-8.680512703135793e-05
-0.00024112535286488197
-0.0002604153810940725
-0.00010885087357900426
-1.240073243305171e-05
-6.751509880216745e-05
-0.0001171180285343716
-0.00018876670481422206
-0.00013089662012665053
1.7912169069961946e-05
9.782800030517979e-05
4.133577477683014e-06
-0.00014191949340047367
-8.404940871290214e-05
5.098078889143139e-05
0.00016396523994811866
9.23165636682682e-05
-3.169076066224221e-05
-3.720219729915378e-05
7.578225375753347e-05
0.0001694766765850302
0.00013089662012664922
1.3778591592272275e-06
-6.475938048371164e-05
6.751509880216611e-05
0.00023561391622796914
7.578225375753347e-05
3.9957915617608246e-05
7.853797207598924e-05
0.00018049954985885336
0.00016120952162966288
-2.342360570687485e-05
-9.507228198672531e-05
2.6179324025329308e-05
7.578225375753347e-05
1.5156450751506162e-05
-0.0001612095216296642
-0.00031828546578164407
-0.0002521482261387052
-0.00010885087357900426
-3.995791561760957e-05
-0.00012814090180819475
-0.0003320640573739229
-0.0003375754940108345
-0.0001584538033112084
-6.475938048371164e-05
-0.00015294236667429682
-0.0003320640573739229
-0.00035410980392156926
-0.0001997895780880452
-0.00011436231021591582
-0.00018601098649576628
-0.00027419397268635144
-0.0002824611276417188
-0.0001612095216296642
-2.6179324025330647e-05
-7.85379720759906e-05
-0.00022734676127260308
-0.0002962397192339978
-0.00019703385976958942
3.444647898069667e-05
6.751509880216611e-05
-8.129369039444639e-05
-0.0002521482261387052
-0.00018876670481422206
-2.6179324025330647e-05
1.3778591592272275e-06
-0.00011160659189746003
-0.00016672095826657574
-0.00014743093003738526
-2.6179324025330647e-05
0.00012262946517128183
7.853797207598924e-05
-7.302653543907902e-05
-0.00010609515526054846
-4.133577477684346e-06
0.00011711802853437029
0.00011160659189745871
-4.8225070572976926e-05
-0.00011436231021591582
2.8935042343785094e-05
0.00015294236667429551
0.00011436231021591448
-6.751509880216745e-05
-0.00023010247959105888
-0.0001391637750820179
7.02708171206219e-05
8.956084534981241e-05
-8.956084534981374e-05
-0.00018325526817731047
-0.00014743093003738526
9.782800030517979e-05
-2.342360570687485e-05
-0.00025765966277561676
-0.00027970540932326305
-1.377859159228559e-06
0.00016672095826657444
9.507228198672396e-05
3.169076066224089e-05
0.00020254529640649968
0.000585590142671854
0.0009135206225680924
0.0007702232700083917
0.00012262946517128183
-0.0005084300297550932
-0.0008336047913328761
-0.0008170704814221414
-0.0007509332417792025
-0.000795024734874495
-0.0006903074387731753
-0.00037339983215075977
-0.00010058371862363688
-1.377859159228559e-06
-0.00011160659189746003
-0.00016396523994811996
-3.169076066224221e-05
0.00014467521171892812
0.00019152242313267648
-9.64501411459592e-06
-0.0001584538033112084
-5.3736507209888505e-05
0.00014191949340047234
0.00020530101472495543
5.098078889143139e-05
-5.6492225528344285e-05
4.133577477683014e-06
0.00019152242313267648
0.0002934840009155406
0.00024112535286488067
8.129369039444505e-05
5.373650720988717e-05
0.0002686825360494386
0.0004450485084306089
0.00029072828259708476
4.546935225451981e-05
2.066788738841773e-05
0.00026592681773098274
0.00047536140993362247
0.0004340256351567857
0.00023561391622796914
6.200366216525454e-05
0.00015845380331120705
0.00042851419851987416
0.0005056743114366363
0.000340331212329289
0.0001253851834897376
0.00013089662012664922
0.000340331212329289
0.0005001628747997245
0.00032104118410009855
0.00019152242313267648
0.00024388107118333642
0.0004450485084306089
0.0005111857480735478
0.0003733998321507585
0.00016672095826657444
0.00019152242313267648
0.0006324373540856024
0.000585590142671854
0.0003623769588769353
0.00021632388799877858
0.0003293083390554659
0.0006572388189517045
0.0006434602273594254
0.00033206405737392166
0.0001970338597695881
0.0003485983672846564
0.0005663001144426635
0.0006076358892195001
0.0003844227054245816
0.000210812451361867
0.00030450687418936376
0.0005663001144426635
0.000679284565499351
0.0005139414663920035
0.0002549039444571596
0.00010333943694209132
0.000263171099412527
0.0004092241702906837
0.00020254529640649968
-3.169076066224221e-05
-0.0001226294651712832
5.649222552834297e-05
0.00029072828259708476
0.000210812451361867
-5.6492225528344285e-05
-0.00011436231021591582
7.30265354390777e-05
0.000263171099412527
0.00023561391622796914
2.3423605706873515e-05
-0.00016396523994811996
-0.0001198737468528274
0.00017498811322194178
0.0002218353246356902
-2.342360570687485e-05
-0.00018876670481422206
-4.2713633936065354e-05
0.00019152242313267648
0.00026592681773098274
4.82250705729756e-05
-9.78280003051811e-05
-2.342360570687485e-05
0.00014743093003738393
0.00031001831082627527
0.0002549039444571596
2.066788738841773e-05
-7.57822537575348e-05
0.0001253851834897376
0.0003954455786984048
0.0002741939726863501
-4.5469352254521147e-05
-0.00015569808499275262
5.9247943846798756e-05
0.0003568655222400236
0.0003348197756923775
0.00013640805676356078
-3.4446478980697995e-05
8.68051270313566e-05
0.00030450687418936376
0.0002741939726863501
5.9247943846798756e-05
-3.4446478980697995e-05
0.00014743093003738393
0.00018876670481422076
-4.2713633936065354e-05
-0.0001997895780880452
-8.956084534981374e-05
0.00019427814145113231
0.000301751155870908
0.00010058371862363556
-0.0001198737468528274
-0.00015569808499275262
-1.7912169069963278e-05
0.00011160659189745871
7.853797207598924e-05
-2.8935042343786426e-05
-2.8935042343786426e-05
0.00014467521171892812
0.00034584264896620056
0.0004064684519722279
0.00038993414206149314
0.0004643385366597993
0.0006241701991302349
0.0005580329594872961
7.02708171206219e-05
-0.0006214144808117806
-0.0010292607919432368
-0.0008721848477912571
-0.000500162874799726
-0.0003127740291447324
-0.0003899341420614945
-0.000447804226749066
-0.00028797256427863044
1.2400732433050376e-05
0.00012262946517128183
-5.098078889143272e-05
-0.00029072828259708617
-0.0002686825360494398
1.5156450751506162e-05
0.00023561391622796914
0.00016672095826657444
-0.0001226294651712832
-0.0001584538033112084
5.9247943846798756e-05
0.000210812451361867
0.00014743093003738393
-3.4446478980697995e-05
-5.9247943846800084e-05
0.00010609515526054714
0.00017498811322194178
0.00010333943694209132
-0.00012814090180819475
-0.0001777438315403989
-3.995791561760957e-05
0.00015845380331120705
0.00027143825436789435
0.00014467521171892812
-3.169076066224221e-05
-6.889295796140132e-06
0.00020254529640649968
0.000263171099412527
0.00013089662012664922
-3.995791561760957e-05
-5.6492225528344285e-05
0.0001556980849927513
0.000315529747463187
0.000172232394903486
-2.066788738841907e-05
0.00024112535286488067
0.00038717842374303736
0.00033206405737392166
0.00014743093003738393
1.2400732433050376e-05
0.00025214822613870384
0.0004946514381628131
0.00035410980392156795
0.00013640805676356078
0.00013365233844510492
0.0002686825360494386
0.00038993414206149314
0.0004064684519722279
0.0002824611276417174
0.00010609515526054714
0.00022734676127260172
0.0005414986495765614
0.0006351930724040583
0.00035135408560311223
9.507228198672396e-05
0.00010885087357900291
0.00041197988860913943
0.0006407045090409697
0.0005332314946211942
0.0002576596627756154
0.00017498811322194178
0.00032655262073701005
0.0004808728465705341
0.00038993414206149314
0.00010058371862363556
-2.6179324025330647e-05
0.00010333943694209132
0.0002824611276417174
0.00019427814145113231
-6.889295796140132e-06
-0.00017223239490348733
-4.2713633936065354e-05
0.00023561391622796914
0.00029623971923399637
0.00012814090180819342
-4.8225070572976926e-05
-3.995791561760957e-05
0.00016672095826657444
0.0002686825360494386
7.578225375753347e-05
-0.00018049954985885472
-0.00018049954985885472
0.00010609515526054714
0.00030450687418936376
0.00020805673304341124
-6.889295796140132e-06
-4.8225070572976926e-05
0.00019152242313267648
0.000365132677195391
0.00020254529640649968
-5.098078889143272e-05
-0.00011436231021591582
0.00010333943694209132
0.0003430869306477448
0.0002824611276417174
2.6179324025329308e-05
-0.00010333943694209268
8.68051270313566e-05
0.00037891126878767
0.0002135681696803228
3.444647898069667e-05
0.00011160659189745871
0.00031001831082627527
0.0003375754940108332
0.00019978957808804387
4.271363393606403e-05
0.00010885087357900291
0.0003375754940108332
0.00042024704356450677
0.00022734676127260172
-6.200366216525588e-05
-6.475938048371164e-05
0.00023285819790951333
0.00042300276188296266
0.000263171099412527
-4.2713633936065354e-05
-8.956084534981374e-05
0.00015845380331120705
0.00037615555046921414
0.000340331212329289
6.475938048371032e-05
-0.0001336523384451063
7.853797207598924e-05
0.00041473560692759526
0.0005056743114366363
0.0003182854657816428
0.00020530101472495543
0.0004450485084306089
0.0009024977492942696
0.0010981537499046305
0.0006655059739070718
-1.7912169069963278e-05
-0.000447804226749066
-0.0004946514381628143
-0.0003403312123292903
-0.00046709425497825643
-0.0005745672693980323
-0.0003899341420614945
-2.342360570687485e-05
0.00018876670481422076
0.00020805673304341124
3.9957915617608246e-05
2.6179324025329308e-05
0.0002576596627756154
0.0004615828183413437
0.0003982012970168605
8.68051270313566e-05
-7.85379720759906e-05
0.000210812451361867
0.0004974071564812689
0.00042575848020141833
0.00019427814145113231
0.00010609515526054714
0.00026592681773098274
0.0004891400015259016
0.000508430029755092
0.00023561391622796914
4.271363393606403e-05
0.00018601098649576498
0.0005111857480735478
0.0006048801709010444
0.0003430869306477448
6.751509880216611e-05
0.00011987374685282605
0.000687551720454718
0.000508430029755092
0.0002218353246356902
0.00020530101472495543
0.00041473560692759526
0.0005828344243533982
0.0005029185931181804
0.00020530101472495543
0.00010058371862363556
0.00032655262073701005
0.0006186587624933234
0.0006434602273594254
0.0004092241702906837
0.0002934840009155406
0.0004670942549782553
0.0007840018616006707
0.0008005361715114055
0.0004946514381628131
0.00025214822613870384
0.00037615555046921414
0.0007206203402761877
0.000806047608148317
0.0006186587624933234
0.0003127740291447311
0.00033206405737392166
0.000637948790722514
0.0008666734111543443
0.0007647118333714802
0.0004643385366597993
0.0003816669871061258
0.0006462159456778814
0.0008336047913328749
0.0007454218051422897
0.00042851419851987416
0.00030450687418936376
0.000560788677805752
0.0008280933546959632
0.0007481775234607456
0.0004367813534752416
0.0002549039444571596
0.0004092241702906837
0.0006462159456778814
0.0006021244525825888
0.0002879725642786291
3.720219729915245e-05
0.00016672095826657444
0.0004781171282520784
0.0005525215228503846
0.00024112535286488067
-3.4446478980697995e-05
6.475938048371032e-05
0.00040371273365377215
0.0005773229877164866
0.00032379690241855427
-4.8225070572976926e-05
-2.066788738841907e-05
0.00037615555046921414
0.0005800787060349425
0.00038717842374303736
8.68051270313566e-05
2.8935042343785094e-05
0.00030450687418936376
0.0005277200579842825
0.00037064411383230263
7.02708171206219e-05
-1.377859159228559e-06
0.0004726056916151668
0.0005139414663920035
0.0002576596627756154
3.444647898069667e-05
0.00016120952162966288
0.0004974071564812689
0.0005938572976272215
0.0003596212405584795
0.0001253851834897376
0.00020805673304341124
0.0005442543678950173
0.0006627502555886161
0.0004726056916151668
0.00019978957808804387
0.0001970338597695881
0.0004395370717936973
0.0006434602273594254
0.0005056743114366363
0.00018049954985885336
0.00010058371862363556
0.00032379690241855427
0.0005111857480735478
0.00042575848020141833
7.30265354390777e-05
-0.0001171180285343716
0.00010333943694209132
0.0004588271000228878
0.0004422927901121532
9.782800030517979e-05
-6.200366216525588e-05
0.00011160659189745871
0.0003596212405584795
0.00041749132524605104
0.00023561391622796914
-3.995791561760957e-05
5.649222552834297e-05
0.0004808728465705341
0.0008198261997405958
0.0008336047913328749
0.0006407045090409697
0.0005883458609903097
0.0005304757763027383
0.00011987374685282605
-0.00048638428320744705
-0.0008115590447852298
-0.0007288874952315562
-0.00029348400091554195
0.00013365233844510492
0.000210812451361867
-6.475938048371164e-05
-0.00016396523994811996
0.00011711802853437029
0.00048362856488898997
0.000456071381704432
0.0001253851834897376
-4.2713633936065354e-05
0.00013089662012664922
0.0003293083390554659
0.00038717842374303736
0.000210812451361867
2.6179324025329308e-05
0.00012814090180819342
0.00042851419851987416
0.0005277200579842825
0.0002852168459601733
0.00010058371862363556
0.00042851419851987416
0.0005359872129396498
0.0002493925078202481
1.7912169069961946e-05
4.82250705729756e-05
0.0003844227054245816
0.0005773229877164866
0.0004588271000228878
0.00020254529640649968
8.129369039444505e-05
0.00030450687418936376
0.0005690558327611192
0.000469849973296711
0.00021632388799877858
9.23165636682682e-05
0.00029072828259708476
0.0006214144808117793
0.0006599945372701603
0.000392689860379949
0.00015294236667429551
0.00022459104295414594
0.0005414986495765614
0.0006737731288624392
0.0004726056916151668
0.00029072828259708476
0.0002852168459601733
0.0005166971847104594
0.0005911015793087656
0.0004395370717936973
0.00024112535286488067
0.00024388107118333642
0.0004781171282520784
0.0006820402838178067
0.0006214144808117793
0.00036788839551384685
0.00023285819790951333
0.0004615828183413437
0.0007316432135500107
0.0006434602273594254
0.0003375754940108332
0.00026592681773098274
0.00043126991683832994
0.0006186587624933234
0.0005718115510795751
0.00032104118410009855
0.00012814090180819342
0.00017774383154039756
0.0004092241702906837
0.0004395370717936973
0.00011987374685282605
-0.00013089662012665053
-0.0001226294651712832
8.956084534981241e-05
0.00024388107118333642
0.00011711802853437029
-0.00014467521171892948
-0.00014191949340047367
7.30265354390777e-05
0.00022459104295414594
5.373650720988717e-05
-0.00022734676127260308
-0.00027694969100480727
4.82250705729756e-05
0.00027143825436789435
0.00019152242313267648
-0.0001997895780880452
-9.64501411459592e-06
0.00018876670481422076
0.00014191949340047234
-7.027081712062322e-05
-0.00027970540932326305
-0.000150186648355841
0.0002218353246356902
0.00031001831082627527
8.129369039444505e-05
-0.00013089662012665053
-2.6179324025330647e-05
0.00020805673304341124
0.0002824611276417174
0.00012262946517128183
-0.00011436231021591582
-7.85379720759906e-05
0.00018876670481422076
0.0003568655222400236
0.0002493925078202481
4.133577477683014e-06
-8.956084534981374e-05
0.00012814090180819342
0.00027970540932326175
0.00024388107118333642
-6.889295796140132e-06
-0.00017223239490348733
-4.5469352254521147e-05
0.000172232394903486
0.00016120952162966288
-0.0001198737468528274
-0.00030726259250782084
-0.00013089662012665053
0.0001556980849927513
0.0001970338597695881
-1.7912169069963278e-05
-0.00020254529640650095
-0.00016396523994811996
9.23165636682682e-05
0.0002218353246356902
3.9957915617608246e-05
-0.00015569808499275262
-8.680512703135793e-05
0.00023285819790951333
0.0004726056916151668
0.0004092241702906837
0.0003485983672846564
0.0005249643396658268
0.000679284565499351
0.0004946514381628131
-4.8225070572976926e-05
-0.0007619561150530257
-0.0010843751583123526
-0.0008308490730144205
-0.000447804226749066
-0.0003127740291447324
-0.0003899341420614945
-0.0004257584802014197
-0.00016947667658503157
0.00017774383154039756
0.0002549039444571596
-1.240073243305171e-05
-0.0002218353246356915
-0.00014743093003738526
0.00016672095826657444
1.5156450751506162e-05
-0.00020254529640650095
-0.0001226294651712832
0.00010885087357900291
0.0002576596627756154
0.00012262946517128183
-0.0001171180285343716
-9.507228198672531e-05
0.00011987374685282605
0.000263171099412527
7.853797207598924e-05
-0.00018601098649576628
-0.00024939250782024937
-5.9247943846800084e-05
0.0001556980849927513
4.82250705729756e-05
-0.00024388107118333775
-0.0003293083390554673
-0.00020254529640650095
1.5156450751506162e-05
1.2400732433050376e-05
-0.00016947667658503157
-0.00027419397268635144
-0.0002549039444571609
-2.342360570687485e-05
5.9247943846798756e-05
-0.00015294236667429682
-0.0003293083390554673
-0.00022459104295414727
9.782800030517979e-05
0.00016396523994811866
-6.751509880216745e-05
-0.00023010247959105888
-0.00012814090180819475
0.00011711802853437029
0.00022734676127260172
0.00010058371862363556
-7.027081712062322e-05
-2.8935042343786426e-05
0.00014743093003738393
0.0003375754940108332
0.00030450687418936376
1.5156450751506162e-05
-9.507228198672531e-05
0.00020254529640649968
0.0004808728465705341
0.000340331212329289
0.00011436231021591448
3.720219729915245e-05
0.00013640805676356078
0.00032379690241855427
0.00030450687418936376
0.00013089662012664922
2.066788738841773e-05
3.720219729915245e-05
0.00022734676127260172
0.00023285819790951333
-3.4446478980697995e-05
-0.0002218353246356915
-0.000150186648355841
5.098078889143139e-05
0.00018049954985885336
2.8935042343785094e-05
-0.00029348400091554195
-0.0003375754940108345
0.00010058371862363556
3.444647898069667e-05
-0.00018876670481422206
-0.00032655262073701135
-0.0001391637750820179
4.546935225451981e-05
-3.720219729915378e-05
-0.00023285819790951464
-0.00027694969100480727
-0.00010885087357900426
4.271363393606403e-05
7.02708171206219e-05
-0.00015569808499275262
-0.00037339983215075977
-0.00024939250782024937
9.64501411459459e-06
7.578225375753347e-05
-5.3736507209888505e-05
-0.0001226294651712832
-8.956084534981374e-05
6.475938048371032e-05
0.00017498811322194178
0.00010333943694209132
-8.404940871290214e-05
-0.00013089662012665053
6.475938048371032e-05
0.00015845380331120705
4.546935225451981e-05
-0.00010885087357900426
-0.00014191949340047367
1.2400732433050376e-05
0.00016672095826657444
0.00010885087357900291
-2.8935042343786426e-05
-0.00010333943694209268
-4.5469352254521147e-05
0.00011987374685282605
0.00010609515526054714
-7.302653543907902e-05
-0.0001997895780880452
-0.00010058371862363688
6.751509880216611e-05
0.00012262946517128183
-1.240073243305171e-05
-7.302653543907902e-05
4.546935225451981e-05
0.00016672095826657444
0.00016120952162966288
0.00013089662012664922
5.373650720988717e-05
6.475938048371032e-05
0.00029072828259708476
0.0005580329594872961
0.0006159030441748677
0.0007840018616006707
0.0010320165102616916
0.0012690082856488892
0.0014150613565270462
0.001630007385366597
0.0028342562905317764
0.0039117421530479885
0.0014729314412146172
-0.0009080091859311822
-0.0017733047379262996
-0.0022583111619745183
-0.003272415503166247
-0.001960693583581293
-0.001026505073624781
-0.0007757347066453045
-0.0009355663691157402
-0.0010099707637140464
-0.0010981537499046318
-0.0011009094682230872
-0.00109264231326772
-0.0011146880598153664
-0.00109264231326772
-0.001026505073624781
-0.0011284666514076451
-0.0013186112153810948
-0.0013985270466163123
-0.00147844287785153
-0.0014288399481193262
-0.001263496849011979
-0.0013130997787441834
-0.0013792370183871219
-0.001453641412985428
-0.0013902598916609454
-0.001274519722285802
-0.0012276725108720536
-0.0012056267643244074
-0.0012194053559166863
-0.0012386953841458767
-0.001161535271229115
-0.0011835810177767614
-0.0011890924544136726
-0.0011312223697261012
-0.0010678408484016179
-0.0009410778057526519
-0.0009135206225680943
-0.001015482200350958
-0.0011091766231784547
-0.0010898865949492643
-0.0009906807354848563
-0.0009493449607080192
-0.0009879250171664002
-0.0009658792706187539
-0.0009190320592050054
-0.0008611619745174342
-0.0008225819180590531
-0.0008776962844281688
-0.0009107649042496381
-0.0008143147631036856
-0.0006434602273594267
-0.000577322987716488
-0.0006847960021362637
-0.0008666734111543456
-0.0008914748760204477
-0.0007592003967345699
-0.00054976580453193
-0.0004422927901121546
-0.0005745672693980323
-0.0006710174105439848
-0.0005084300297550932
-0.0003127740291447324
-0.00027419397268635144
-0.00036237695887693665
-0.0005111857480735491
-0.0005029185931181816
-0.0003458426489662019
-0.00024388107118333775
-0.0003210411841000998
-0.00047536140993362393
-0.00013089662012665053
2.066788738841773e-05
-0.00024939250782024937
-0.0005304757763027395
-0.0006379487907225153
-0.0005470100862134743
-0.0003871784237430386
-0.00045331566338597764
-0.0007095974670023658
-0.000745421805142291
-0.0005552772411688418
-0.00040095701533531767
-0.000423002761882964
-0.0005277200579842838
-0.00060212445258259
-0.0004946514381628143
-0.00024939250782024937
-0.00020254529640650095
-0.0003348197756923787
-0.0005414986495765627
-0.0006517273823147941
-0.0005277200579842838
-0.0004698499732967123
-0.00065448310063325
-0.0007426660868238351
-0.0008363605096513318
-0.0008969863126573594
-0.0009300549324788287
-0.0011422452429999243
-0.0011670467078660266
-0.000963123552300298
-0.0007261317769131007
-0.00065448310063325
-0.0008253376363775088
-0.0009576121156633864
-0.0010678408484016179
-0.0010485508201724275
-0.0009272992141603728
-0.0008721848477912571
-0.0008584062561989784
-0.0009493449607080192
-0.0010898865949492643
-0.0011009094682230872
-0.0010898865949492643
-0.0011835810177767614
-0.0012166496375982305
-0.0012800311589227138
-0.0013075883421072713
-0.0012028710460059518
-0.0012194053559166863
-0.0013130997787441834
-0.0012882983138780809
-0.0012717640039673465
-0.0012855425955596252
-0.0012772754406042577
-0.0013213669336995504
-0.001365458426794843
-0.0012855425955596252
-0.0011670467078660266
-0.0010623294117647064
-0.0009107649042496381
-0.0007481775234607469
-0.0006351930724040594
-0.0006930631570916311
-0.001158779552910659
-0.0022472882887006945
-0.0023464941481651028
-0.0022142196688792254
-0.002095723781185626
-0.0019221135271229122
-0.0017319689631494627
-0.0015638701457236597
-0.0015142672159914558
-0.001550091554131381
-0.0014674200045777072
-0.0013819927367055777
-0.0013682141451132987
-0.0014563971313038841
-0.0016244959487296871
-0.0017705490196078433
-0.0019276249637598239
-0.001996517921721218
-0.002037853696498055
-0.00212603668268864
-0.0022307539787899604
-0.002203196795605402
-0.002288624063477532
-0.00233547127489128
-0.0021646167391470208
-0.0019276249637598239
-0.001715434653238728
-0.0016244959487296871
-0.0016548088502327005
-0.001715434653238728
-0.0016851217517357146
-0.0016244959487296871
-0.001550091554131381
-0.0015831601739528503
-0.0015748930189974828
-0.0015060000610360883
-0.0014371071030746935
-0.0015170229343099112
-0.0015611144274052038
-0.0014646642862592512
-0.001453641412985428
-0.001417817074845503
-0.0012938097505149923
-0.0012552296940566115
-0.001233183947508965
-0.0012442068207827886
-0.0012001153276874961
-0.0011670467078660266
-0.0011394895246814685
-0.001164290989547571
-0.0011422452429999243
-0.0010320165102616929
-0.0010072150453955906
-0.0009934364538033119
-0.0009851692988479444
-0.0010320165102616929
-0.0010788637216754414
-0.0011036651865415433
-0.0010347722285801487
-0.000874940566109713
-0.0008639176928358897
-0.0009383220874341961
-0.0009245434958419172
-0.0009713907072556656
-0.0009879250171664002
-0.0009217877775234612
-0.0008556505378805224
-0.0008363605096513318
-0.0008666734111543456
-0.0009603678339818424
-0.0009438335240711076
-0.0009245434958419172
-0.001070596566720074
-0.001233183947508965
-0.001156023834592203
-0.0010678408484016179
-0.0009961921721217675
-0.0009658792706187539
-0.0010375279468986046
-0.0011091766231784547
-0.0011753138628213936
-0.001222161074235142
-0.0012111382009613188
-0.0011422452429999243
-0.0011257109330891897
-0.0011808252994583053
-0.0013075883421072713
-0.001393015609979401
-0.0013130997787441834
-0.0012497182574196996
-0.0012111382009613188
-0.0011422452429999243
-0.0011119323414969108
-0.0010540622568093393
-0.0007509332417792025
-0.0005745672693980323
-0.0005855901426718552
-0.00060212445258259
-0.0006048801709010458
-0.0006186587624933248
-0.0006186587624933248
-0.0005883458609903113
-0.0005938572976272227
-0.000668261692225529
-0.0006737731288624405
-0.0006324373540856038
-0.0005855901426718552
-0.0006076358892195017
-0.000577322987716488
-0.0005745672693980323
-0.0006048801709010458
-0.0006103916075379574
-0.0005718115510795765
-0.0005525215228503861
-0.0006131473258564133
-0.0006103916075379574
-0.0006379487907225153
-0.0007095974670023658
-0.0008143147631036856
-0.0008418719462882435
-0.0008418719462882435
-0.0008253376363775088
-0.0007702232700083929
-0.0007784904249637603
-0.0007674675516899373
-0.0007840018616006722
-0.0008225819180590531
-0.0008391162279697878
-0.0008528948195620666
-0.0007840018616006722
-0.0007040860303654542
-0.0007178646219577333
-0.0006076358892195017
-0.0003596212405584808
-0.00014467521171892948
-0.00019703385976958942
-0.0006627502555886173
-0.0011064209048599993
-0.0015335572442206462
-0.0018669991607537957
-0.0018063733577477691
-0.00163551882200351
-0.0014398628213931491
-0.0012469625391012442
-0.0011725581445029378
-0.0011119323414969108
-0.0009658792706187539
-0.0008446276646066993
-0.0008225819180590531
-0.0007895132982375835
-0.0007619561150530257
-0.0007895132982375835
-0.0008088033264667742
-0.0007977804531929508
-0.0007426660868238351
-0.000795024734874495
-0.0008914748760204477
-0.0008776962844281688
-0.0007702232700083929
-0.0007343989318684678
-0.0007040860303654542
-0.0007040860303654542
-0.0006792845654993521
-0.0006103916075379574
-0.0006792845654993521
-0.0007536889600976582
-0.0007261317769131007
-0.0006958188754100868
-0.0006903074387731753
-0.0006048801709010458
-0.0005580329594872974
-0.0006048801709010458
-0.0005883458609903113
-0.000591101579308767
-0.0006489716639963384
-0.0006847960021362637
-0.0006241701991302363
-0.0005663001144426648
-0.0005332314946211955
-0.0005552772411688418
-0.0006103916075379574
-0.0005442543678950186
-0.00046433853665980087
-0.00043678135347524285
-0.00044504850843061025
-0.0005277200579842838
-0.0004891400015259028
-0.000500162874799726
-0.0005277200579842838
-0.0004615828183413449
-0.00036788839551384826
-0.0003651326771953924
-0.00046709425497825643
-0.0004891400015259028
-0.00040922417029068495
-0.0002989954375524536
-0.0002852168459601746
-0.0003871784237430386
-0.0003513540856031135
-0.0003348197756923787
-0.0003568655222400251
-0.0003816669871061273
-0.0004257584802014197
-0.00043953707179369863
-0.0003348197756923787
-0.0003210411841000998
-0.0003403312123292903
-0.00044504850843061025
-0.0005883458609903113
-0.0006407045090409712
-0.0006847960021362637
-0.0006627502555886173
-0.0005855901426718552
-0.000591101579308767
-0.0006903074387731753
-0.0007757347066453045
-0.0007784904249637603
-0.0007426660868238351
-0.0006765288471808962
-0.0006627502555886173
-0.0007040860303654542
-0.0006847960021362637
-0.0007178646219577333
-0.0007481775234607469
-0.0007481775234607469
-0.0007647118333714817
-0.0007702232700083929
-0.0006792845654993521
-0.0006627502555886173
-0.0007095974670023658
-0.0006930631570916311
-0.0006599945372701616
-0.000615903044174869
-0.0006930631570916311
-0.0007867575799191276
-0.0007674675516899373
-0.0007481775234607469
-0.0007399103685053794
-0.0007261317769131007
-0.0007261317769131007
-0.0006572388189517057
-0.0005828344243533996
-0.0004918957198443586
-0.00044504850843061025
-0.0005277200579842838
-0.0006269259174486923
-0.0007013303120469984
-0.0007343989318684678
-0.0006958188754100868
-0.0006599945372701616
-0.0006214144808117806
-0.000629681635767148
-0.0006462159456778825
-0.000668261692225529
-0.0007151089036392773
-0.0007729789883268486
-0.0007536889600976582
-0.0006737731288624405
-0.0006269259174486923
-0.0006820402838178078
-0.0007151089036392773
-0.0007371546501869236
-0.000745421805142291
-0.0007977804531929508
-0.0006792845654993521
-0.0006572388189517057
-0.0007178646219577333
-0.0007040860303654542
-0.0006186587624933248
-0.00045331566338597764
-0.00023836963454642628
-4.133577477684346e-06
-3.4446478980697995e-05
-0.00045882710002288904
-0.0009879250171664002
-0.0014674200045777072
-0.0016851217517357146
-0.0016603202868696126
-0.0015363129625391013
-0.0013186112153810948
-0.0011312223697261012
-0.0009245434958419172
-0.0008198261997405972
-0.0008336047913328761
-0.0007674675516899373
-0.0006462159456778825
-0.0005966130159456783
-0.0006820402838178078
-0.0007095974670023658
-0.0007068417486839102
-0.0007178646219577333
-0.0006875517204547195
-0.0006407045090409712
-0.0005690558327611206
-0.0005304757763027395
-0.0006214144808117806
-0.0006903074387731753
-0.0006131473258564133
-0.0005690558327611206
-0.0005993687342641343
-0.000577322987716488
-0.00060212445258259
-0.0006407045090409712
-0.0005800787060349438
-0.0005414986495765627
-0.000500162874799726
-0.0005663001144426648
-0.0006186587624933248
-0.00054976580453193
-0.00048087284657053543
-0.0005222086213473721
-0.0005580329594872974
-0.0004974071564812702
-0.0005222086213473721
-0.0005029185931181816
-0.0004285141985198755
-0.0003596212405584808
-0.00035410980392156926
-0.0004781171282520797
-0.00047536140993362393
-0.00037339983215075977
-0.0003293083390554673
-0.000370644113832304
-0.0003871784237430386
-0.0003596212405584808
-0.0003430869306477461
-0.0003816669871061273
-0.00029072828259708617
-0.00032655262073701135
-0.00030726259250782084
-0.00032379690241855563
-0.0003568655222400251
-0.00023561391622797047
-0.0001584538033112084
-0.0002218353246356915
-0.00032655262073701135
-0.00027970540932326305
-0.00024388107118333775
-0.00027694969100480727
-0.00026592681773098404
-0.00020530101472495681
-0.00023010247959105888
-0.0002962397192339978
-0.0003403312123292903
-0.00037339983215075977
-0.00037615555046921565
-0.0003458426489662019
-0.000423002761882964
-0.0006076358892195017
-0.0006241701991302363
-0.0005663001144426648
-0.0005359872129396513
-0.0005111857480735491
-0.0005525215228503861
-0.0006379487907225153
-0.0006351930724040594
-0.0006572388189517057
-0.0006241701991302363
-0.000629681635767148
-0.0007233760585946446
-0.0007068417486839102
-0.0006186587624933248
-0.0005663001144426648
-0.0005745672693980323
-0.00060212445258259
-0.0006379487907225153
-0.0006407045090409712
-0.0006462159456778825
-0.0006379487907225153
-0.0005938572976272227
-0.000577322987716488
-0.0005359872129396513
-0.0005607886778057534
-0.0005690558327611206
-0.0006269259174486923
-0.0006269259174486923
-0.0005607886778057534
-0.0005607886778057534
-0.0005332314946211955
-0.0004422927901121546
-0.0004312699168383313
-0.0004698499732967123
-0.0005139414663920051
-0.0005029185931181816
-0.0004698499732967123
-0.0005111857480735491
-0.0005552772411688418
-0.0005304757763027395
-0.0005304757763027395
-0.0005332314946211955
-0.0005938572976272227
-0.0007151089036392773
-0.0006820402838178078
-0.0006131473258564133
-0.000629681635767148
-0.0006103916075379574
-0.00054976580453193
-0.0005442543678950186
-0.0005663001144426648
-0.000591101579308767
-0.0006434602273594267
-0.000668261692225529
-0.0006269259174486923
-0.0005993687342641343
-0.0005800787060349438
-0.0004974071564812702
-0.00036788839551384826
-0.00015569808499275262
9.23165636682682e-05
2.8935042343785094e-05
-0.0003568655222400251
-0.0009024977492942707
-0.001409549919890136
-0.0016079616388189524
-0.0014977329060807208
-0.0012965654688334484
-0.0010816194399938968
-0.0009024977492942707
-0.0007729789883268486
-0.0006710174105439848
-0.0006737731288624405
-0.0006792845654993521
-0.0006434602273594267
-0.0006792845654993521
-0.0006572388189517057
-0.0005855901426718552
-0.0005442543678950186
-0.0005359872129396513
-0.0005552772411688418
-0.0005166971847104609
-0.000500162874799726
-0.0006269259174486923
-0.0006076358892195017
-0.00048087284657053543
-0.0004918957198443586
-0.00043678135347524285
-0.00047260569161516804
-0.0005828344243533996
-0.0005166971847104609
-0.00043402563515678713
-0.0004147356069275966
-0.0004615828183413449
-0.0005332314946211955
-0.0005359872129396513
-0.0004974071564812702
-0.0005277200579842838
-0.0005166971847104609
-0.0004312699168383313
-0.000370644113832304
-0.0004312699168383313
-0.0004147356069275966
-0.0003982012970168618
-0.0003568655222400251
-0.0003348197756923787
-0.0003596212405584808
-0.0003430869306477461
-0.00032655262073701135
-0.00037615555046921565
-0.0004422927901121546
-0.00037891126878767127
-0.00026592681773098404
-0.0002080567330434125
-0.00026592681773098404
-0.0003127740291447324
-0.00025765966277561676
-0.00020530101472495681
-0.00018876670481422206
-0.00025765966277561676
-0.0003320640573739229
-0.0003127740291447324
-0.00027143825436789566
-0.00021356816968032413
-0.00019152242313267784
-0.00018325526817731047
-0.00015294236667429682
-0.0001612095216296642
-0.0002604153810940725
-0.00027143825436789566
-0.00021356816968032413
-0.0002466367895017936
-0.00023010247959105888
-0.00021356816968032413
-0.0003844227054245829
-0.0005745672693980323
-0.0005663001144426648
-0.0004891400015259028
-0.00048638428320744705
-0.0005029185931181816
-0.00043678135347524285
-0.00047536140993362393
-0.0005470100862134743
-0.0005304757763027395
-0.0006269259174486923
-0.0007343989318684678
-0.0006572388189517057
-0.0005029185931181816
-0.0005304757763027395
-0.0005690558327611206
-0.0005800787060349438
-0.000591101579308767
-0.00060212445258259
-0.0005855901426718552
-0.0005277200579842838
-0.0005111857480735491
-0.00045882710002288904
-0.0005056743114366376
-0.00060212445258259
-0.0006351930724040594
-0.0006131473258564133
-0.0006103916075379574
-0.0005359872129396513
-0.0004781171282520797
-0.0005056743114366376
-0.0005194529030289164
-0.00054976580453193
-0.00048087284657053543
-0.00037891126878767127
-0.0003100183108262768
-0.0003844227054245829
-0.0004891400015259028
-0.0005056743114366376
-0.0004285141985198755
-0.00035410980392156926
-0.00037615555046921565
-0.00045331566338597764
-0.0005607886778057534
-0.0005718115510795765
-0.0005056743114366376
-0.0005056743114366376
-0.0005111857480735491
-0.0005139414663920051
-0.0005139414663920051
-0.0004918957198443586
-0.00048362856488899143
-0.00046433853665980087
-0.0004781171282520797
-0.0004422927901121546
-0.00046433853665980087
-0.0005663001144426648
-0.0005635443961242091
-0.00045882710002288904
-0.000423002761882964
-0.00030726259250782084
-0.00014191949340047367
1.3778591592272275e-06
0.00014467521171892812
0.000172232394903486
3.169076066224089e-05
-0.0004422927901121546
-0.0010650851300831622
-0.0013985270466163123
-0.001442618539711605
-0.001310344060425727
-0.0011064209048599993
-0.0008639176928358897
-0.0007178646219577333
-0.0006985745937285427
-0.000629681635767148
-0.0005166971847104609
-0.00037615555046921565
-0.0003954455786984061
-0.0005277200579842838
-0.0005635443961242091
-0.00045331566338597764
-0.0004257584802014197
-0.0004285141985198755
-0.00037891126878767127
-0.00041749132524605234
-0.00047260569161516804
-0.00048087284657053543
-0.0003651326771953924
-0.0003293083390554673
-0.0003513540856031135
-0.0003871784237430386
-0.00045055994506752175
-0.0003982012970168618
-0.0003458426489662019
-0.0003899341420614945
-0.00036237695887693665
-0.00031828546578164407
-0.0003375754940108345
-0.0002962397192339978
-0.0002962397192339978
-0.0003651326771953924
-0.0003430869306477461
-0.0002962397192339978
-0.0003155297474631883
-0.00029348400091554195
-0.00026592681773098404
-0.00030175115587090934
-0.00023836963454642628
-0.000150186648355841
-0.0002108124513618684
-0.0003045068741893651
-0.00024112535286488197
-0.0001997895780880452
-0.00023561391622797047
-0.00018325526817731047
-0.00017223239490348733
-0.0002108124513618684
-0.00014743093003738526
-8.956084534981374e-05
-8.956084534981374e-05
-5.9247943846800084e-05
-7.302653543907902e-05
-0.0001584538033112084
-0.0001336523384451063
-7.85379720759906e-05
-8.956084534981374e-05
-0.00011160659189746003
-0.0001198737468528274
-0.00011160659189746003
-0.00015569808499275262
-0.00012538518348973897
-2.066788738841907e-05
-6.889295796140132e-06
-9.78280003051811e-05
-0.0002190796063172357
-0.0002604153810940725
-0.0003651326771953924
-0.00041749132524605234
-0.00030726259250782084
-0.00019152242313267784
-0.0003513540856031135
-0.00048638428320744705
-0.00041749132524605234
-0.0003954455786984061
-0.00040095701533531767
-0.0005470100862134743
-0.0005525215228503861
-0.00048638428320744705
-0.0004891400015259028
-0.0004891400015259028
-0.00048362856488899143
-0.0005056743114366376
-0.0005607886778057534
-0.0005470100862134743
-0.0005332314946211955
-0.0005552772411688418
-0.0005718115510795765
-0.0005332314946211955
-0.0005111857480735491
-0.0005166971847104609
-0.00045055994506752175
-0.0004946514381628143
-0.0005470100862134743
-0.0005277200579842838
-0.0004257584802014197
-0.0003982012970168618
-0.0003596212405584808
-0.00036788839551384826
-0.0004257584802014197
-0.0004974071564812702
-0.00048087284657053543
-0.00043953707179369863
-0.00043953707179369863
-0.0003899341420614945
-0.00047260569161516804
-0.00045055994506752175
-0.0003816669871061273
-0.00037891126878767127
-0.0004147356069275966
-0.0005414986495765627
-0.0005552772411688418
-0.00047260569161516804
-0.0004781171282520797
-0.0004560713817044334
-0.0005222086213473721
-0.0006214144808117806
-0.0006048801709010458
-0.0005883458609903113
-0.0007040860303654542
-0.000591101579308767
-0.000423002761882964
-0.00044504850843061025
-0.0005552772411688418
-0.0005552772411688418
-0.0004615828183413449
-0.00041197988860914084
-0.00030726259250782084
-9.507228198672531e-05
7.02708171206219e-05
0.00019152242313267648
7.30265354390777e-05
-0.00037615555046921565
-0.0009272992141603728
-0.0014067942015716798
-0.0015831601739528503
-0.0015004886243991764
-0.001483954314488442
-0.0013186112153810948
-0.001012726482032502
-0.0008088033264667742
-0.0007343989318684678
-0.000668261692225529
-0.0006048801709010458
-0.0005222086213473721
-0.0005194529030289164
-0.0005883458609903113
-0.0005966130159456783
-0.0006379487907225153
-0.0006958188754100868
-0.0005745672693980323
-0.00045055994506752175
-0.0003954455786984061
-0.00041749132524605234
-0.00048362856488899143
-0.0004560713817044334
-0.0005029185931181816
-0.0005332314946211955
-0.0005442543678950186
-0.0005552772411688418
-0.0005166971847104609
-0.0004422927901121546
-0.00041749132524605234
-0.00043953707179369863
-0.00048638428320744705
-0.0005139414663920051
-0.00048362856488899143
-0.00041197988860914084
-0.0002852168459601746
-0.00031828546578164407
-0.00045882710002288904
-0.000447804226749066
-0.00032655262073701135
-0.0003844227054245829
-0.0004257584802014197
-0.0003816669871061273
-0.0003293083390554673
-0.00022734676127260308
-0.0002218353246356915
-0.00027694969100480727
-0.0002824611276417188
-0.0002824611276417188
-0.00023285819790951464
-0.00024939250782024937
-0.00027694969100480727
-0.00022459104295414727
-0.00014191949340047367
-0.00019152242313267784
-0.00029348400091554195
-0.00024939250782024937
-0.00017498811322194308
-8.956084534981374e-05
-2.8935042343786426e-05
-0.00012538518348973897
-0.00020530101472495681
-0.0002218353246356915
-0.0002466367895017936
-0.0001584538033112084
-0.00010333943694209268
-0.00010609515526054846
-0.0001364080567635621
-0.00018325526817731047
-0.0002962397192339978
-0.00030175115587090934
-0.0003100183108262768
-0.0003816669871061273
-0.0004202470435645082
-0.00046709425497825643
-0.0003982012970168618
-0.0003982012970168618
-0.0005111857480735491
-0.0005470100862134743
-0.0005800787060349438
-0.0005277200579842838
-0.00045331566338597764
-0.0005277200579842838
-0.0005525215228503861
-0.0005442543678950186
-0.00048087284657053543
-0.0005111857480735491
-0.0006517273823147941
-0.0006517273823147941
-0.0006462159456778825
-0.0005525215228503861
-0.0004781171282520797
-0.00045882710002288904
-0.0005277200579842838
-0.0005745672693980323
-0.0005828344243533996
-0.0005166971847104609
-0.0004615828183413449
-0.00045055994506752175
-0.0004918957198443586
-0.0005166971847104609
-0.0004891400015259028
-0.0004257584802014197
-0.0003871784237430386
-0.0004918957198443586
-0.0005166971847104609
-0.0003982012970168618
-0.0003403312123292903
-0.00043402563515678713
-0.0005029185931181816
-0.00048638428320744705
-0.0005194529030289164
-0.0005718115510795765
-0.0005332314946211955
-0.0005056743114366376
-0.0005359872129396513
-0.0005139414663920051
-0.0005166971847104609
-0.0005387429312581068
-0.0005690558327611206
-0.0005029185931181816
-0.000500162874799726
-0.0005883458609903113
-0.000668261692225529
-0.0006792845654993521
-0.0005966130159456783
-0.0005056743114366376
-0.00045055994506752175
-0.0005222086213473721
-0.0005470100862134743
-0.0003899341420614945
-0.00028797256427863044
-0.0001777438315403989
-3.4446478980697995e-05
2.6179324025329308e-05
-0.00011436231021591582
-0.0005359872129396513
-0.0010761080033569854
-0.0015363129625391013
-0.0016548088502327005
-0.0015252900892652787
-0.001222161074235142
-0.0009851692988479444
-0.0008914748760204477
-0.0008060476081483182
-0.0007481775234607469
-0.0007233760585946446
-0.0006903074387731753
-0.0006462159456778825
-0.0006241701991302363
-0.000591101579308767
-0.0005249643396658282
-0.00046433853665980087
-0.00048362856488899143
-0.0005304757763027395
-0.0005580329594872974
-0.0004974071564812702
-0.00041749132524605234
-0.00043953707179369863
-0.00046433853665980087
-0.0005084300297550932
-0.0005277200579842838
-0.0005938572976272227
-0.0006241701991302363
-0.0005718115510795765
-0.0005139414663920051
-0.00039268986037995033
-0.0003871784237430386
-0.0004147356069275966
-0.0003458426489662019
-0.0003982012970168618
-0.0004891400015259028
-0.0005359872129396513
-0.00045055994506752175
-0.00041749132524605234
-0.00040922417029068495
-0.0003458426489662019
-0.0003320640573739229
-0.00035410980392156926
-0.0003982012970168618
-0.00037339983215075977
-0.0002824611276417188
-0.00017498811322194308
-0.0001997895780880452
-0.0003568655222400251
-0.00037891126878767127
-0.0003899341420614945
-0.00032379690241855563
-0.00017498811322194308
-0.00018049954985885472
-0.00024939250782024937
-0.00025765966277561676
-0.00018325526817731047
-0.0001612095216296642
-0.00025765966277561676
-0.0002989954375524536
-0.00020530101472495681
-0.00015294236667429682
-0.0001584538033112084
-0.00019152242313267784
-0.00023561391622797047
-0.00023010247959105888
-0.00023561391622797047
-0.00021632388799877996
-0.00024388107118333775
-0.0002190796063172357
-0.0001198737468528274
-0.00018601098649576628
-0.00040095701533531767
-0.0004918957198443586
-0.00047536140993362393
-0.0004946514381628143
-0.0005525215228503861
-0.0005166971847104609
-0.0005166971847104609
-0.00048362856488899143
-0.00047260569161516804
-0.0005166971847104609
-0.0005938572976272227
-0.0005332314946211955
-0.00047260569161516804
-0.0005525215228503861
-0.000629681635767148
-0.0006407045090409712
-0.0005663001144426648
-0.0005938572976272227
-0.0006572388189517057
-0.0006351930724040594
-0.0005442543678950186
-0.0004422927901121546
-0.00045331566338597764
-0.0005607886778057534
-0.0006048801709010458
-0.0005663001144426648
-0.0005690558327611206
-0.0005359872129396513
-0.0005552772411688418
-0.0005359872129396513
-0.0004974071564812702
-0.00047536140993362393
-0.00044504850843061025
-0.00047536140993362393
-0.00054976580453193
-0.0004974071564812702
-0.0003100183108262768
-0.00032379690241855563
-0.0004918957198443586
-0.0005855901426718552
-0.0005607886778057534
-0.00044504850843061025
-0.00043953707179369863
-0.0005745672693980323
-0.0006489716639963384
-0.0006572388189517057
-0.0006351930724040594
-0.0005855901426718552
-0.0005304757763027395
-0.0005166971847104609
-0.0006076358892195017
-0.0006186587624933248
-0.0006214144808117806
-0.0006903074387731753
-0.0006489716639963384
-0.0005359872129396513
-0.0004946514381628143
-0.0005249643396658282
-0.0005580329594872974
-0.00054976580453193
-0.0003982012970168618
-0.00014191949340047367
5.098078889143139e-05
9.507228198672396e-05
-0.00012814090180819475
-0.00046709425497825643
-0.0010237493553063252
-0.0014563971313038841
-0.0014619085679407956
-0.00130207690547036
-0.0012304282291905097
-0.0011257109330891897
-0.0009162763408865498
-0.0007426660868238351
-0.0006930631570916311
-0.0007343989318684678
-0.0006820402838178078
-0.000577322987716488
-0.0005607886778057534
-0.00060212445258259
-0.0005855901426718552
-0.00054976580453193
-0.0005194529030289164
-0.0005029185931181816
-0.0005663001144426648
-0.00054976580453193
-0.0004946514381628143
-0.0005414986495765627
-0.0004946514381628143
-0.0006324373540856038
-0.0005690558327611206
-0.0004147356069275966
-0.00040646845197222917
-0.00037615555046921565
-0.0005056743114366376
-0.0006462159456778825
-0.0005525215228503861
-0.0004147356069275966
-0.00027694969100480727
-0.00028797256427863044
-0.00048087284657053543
-0.0005414986495765627
-0.00045882710002288904
-0.00037615555046921565
-0.0003375754940108345
-0.0004560713817044334
-0.00047536140993362393
-0.0003816669871061273
-0.0003127740291447324
-0.00028797256427863044
-0.00025765966277561676
-0.00021356816968032413
-0.00022459104295414727
-0.0002824611276417188
-0.0003458426489662019
-0.00036237695887693665
-0.0003954455786984061
-0.00028797256427863044
-2.342360570687485e-05
-2.342360570687485e-05
-0.0001336523384451063
-0.0001997895780880452
-0.0003045068741893651
-0.0004202470435645082
-0.00027694969100480727
-0.00020530101472495681
-0.00018325526817731047
-0.00016396523994811996
-0.00021632388799877996
-0.00018049954985885472
-4.5469352254521147e-05
-0.0001364080567635621
-0.00026592681773098404
-0.00020530101472495681
-0.00016672095826657574
-0.00023285819790951464
-0.00027970540932326305
-0.0003871784237430386
-0.00045055994506752175
-0.000423002761882964
-0.0003954455786984061
-0.0005222086213473721
-0.0006434602273594267
-0.0005552772411688418
-0.00045055994506752175
-0.0005084300297550932
-0.0006214144808117806
-0.0005552772411688418
-0.0005414986495765627
-0.0005580329594872974
-0.0005663001144426648
-0.00054976580453193
-0.0005552772411688418
-0.0005194529030289164
-0.00054976580453193
-0.0004891400015259028
-0.0004946514381628143
-0.0005084300297550932
-0.0005222086213473721
-0.0005690558327611206
-0.0005139414663920051
-0.0005056743114366376
-0.0005993687342641343
-0.0005745672693980323
-0.0005249643396658282
-0.0005607886778057534
-0.0005525215228503861
-0.00046433853665980087
-0.00048087284657053543
-0.0005359872129396513
-0.0005084300297550932
-0.0004147356069275966
-0.0003596212405584808
-0.0003954455786984061
-0.0005359872129396513
-0.0005993687342641343
-0.0005470100862134743
-0.00043402563515678713
-0.00039268986037995033
-0.00043953707179369863
-0.0005277200579842838
-0.0004891400015259028
-0.0004946514381628143
-0.000615903044174869
-0.00065448310063325
-0.0006434602273594267
-0.0006186587624933248
-0.0005635443961242091
-0.0006241701991302363
-0.0006407045090409712
-0.000577322987716488
-0.0005607886778057534
-0.0006517273823147941
-0.000629681635767148
-0.0004918957198443586
-0.00040095701533531767
-0.0004615828183413449
-0.00047536140993362393
-0.0002989954375524536
-9.231656366826955e-05
0.0001694766765850302
0.00018601098649576498
-0.0002604153810940725
-0.0008914748760204477
-0.0014591528496223395
-0.001690633188372626
-0.0015363129625391013
-0.0012855425955596252
-0.0012386953841458767
-0.0011367338063630126
-0.0008887191577019918
-0.0007013303120469984
-0.0006847960021362637
-0.000668261692225529
-0.0006103916075379574
-0.0005359872129396513
-0.0005277200579842838
-0.0005139414663920051
-0.0005745672693980323
-0.000668261692225529
-0.0005635443961242091
-0.0005084300297550932
-0.0005304757763027395
-0.0005387429312581068
-0.0006076358892195017
-0.0005828344243533996
-0.00047536140993362393
-0.0003871784237430386
-0.00043953707179369863
-0.000447804226749066
-0.000500162874799726
-0.0005883458609903113
-0.0005139414663920051
-0.0005056743114366376
-0.0005745672693980323
-0.0005304757763027395
-0.00045882710002288904
-0.00040095701533531767
-0.000370644113832304
-0.00040095701533531767
-0.00040646845197222917
-0.00036237695887693665
-0.00041197988860914084
-0.0004312699168383313
-0.000447804226749066
-0.00044504850843061025
-0.00040922417029068495
-0.00039268986037995033
-0.0003513540856031135
-0.00032655262073701135
-0.0002852168459601746
-0.0003513540856031135
-0.0003816669871061273
-0.0003320640573739229
-0.0002604153810940725
-0.0002190796063172357
-0.00018601098649576628
-0.00016947667658503157
-0.0002521482261387052
-0.00027419397268635144
-0.00027419397268635144
-0.0002521482261387052
-0.00018049954985885472
-0.00019152242313267784
-0.0003375754940108345
-0.0003899341420614945
-0.0003816669871061273
-0.0003403312123292903
-0.00023010247959105888
-0.0001198737468528274
-4.5469352254521147e-05
-0.00020254529640650095
-0.0003485983672846577
-0.00041749132524605234
-0.00047536140993362393
-0.0004918957198443586
-0.0005166971847104609
-0.0005855901426718552
-0.0006765288471808962
-0.0006985745937285427
-0.0006407045090409712
-0.00048087284657053543
-0.000447804226749066
-0.0005690558327611206
-0.0006324373540856038
-0.0005966130159456783
-0.0006379487907225153
-0.0006434602273594267
-0.0005828344243533996
-0.0005690558327611206
-0.00060212445258259
-0.0006407045090409712
-0.0006324373540856038
-0.0006324373540856038
-0.0006820402838178078
-0.0006434602273594267
-0.0005883458609903113
-0.0006103916075379574
-0.0006186587624933248
-0.0005938572976272227
-0.0005166971847104609
-0.000577322987716488
-0.0006655059739070732
-0.00060212445258259
-0.0005029185931181816
-0.00047260569161516804
-0.0005414986495765627
-0.0005883458609903113
-0.0005029185931181816
-0.0004946514381628143
-0.00046709425497825643
-0.00045882710002288904
-0.0005442543678950186
-0.0006131473258564133
-0.0006930631570916311
-0.00060212445258259
-0.0005442543678950186
-0.00060212445258259
-0.0006186587624933248
-0.0006379487907225153
-0.0005580329594872974
-0.0005139414663920051
-0.0006820402838178078
-0.0008501391012436108
-0.0007922690165560394
-0.0006462159456778825
-0.0006076358892195017
-0.0006186587624933248
-0.0006599945372701616
-0.0006462159456778825
-0.0005525215228503861
-0.0005139414663920051
-0.0004974071564812702
-0.0004891400015259028
-0.00048087284657053543
-0.00027419397268635144
-8.680512703135793e-05
-0.0001391637750820179
-0.000370644113832304
-0.0007674675516899373
-0.0012359396658274211
-0.0015748930189974828
-0.001610717357137408
-0.0014453742580300608
-0.0013130997787441834
-0.0012166496375982305
-0.0009741464255741213
-0.0007426660868238351
-0.0007619561150530257
-0.0007592003967345699
-0.0007233760585946446
-0.0006627502555886173
-0.0005029185931181816
-0.0004974071564812702
-0.0006434602273594267
-0.0007123531853208215
-0.0005883458609903113
-0.0005470100862134743
-0.0006462159456778825
-0.0006379487907225153
-0.000591101579308767
-0.0005828344243533996
-0.0005470100862134743
-0.0005718115510795765
-0.0005580329594872974
-0.0005277200579842838
-0.0005249643396658282
-0.0005442543678950186
-0.0005525215228503861
-0.0005607886778057534
-0.0005442543678950186
-0.0004946514381628143
-0.0005470100862134743
-0.00054976580453193
-0.0005139414663920051
-0.000500162874799726
-0.0004147356069275966
-0.0003871784237430386
-0.0004257584802014197
-0.00045055994506752175
-0.00047536140993362393
-0.0004918957198443586
-0.0004698499732967123
-0.00040095701533531767
-0.0003954455786984061
-0.0003485983672846577
-0.0003100183108262768
-0.0002852168459601746
-0.0002962397192339978
-0.00036237695887693665
-0.00025765966277561676
-0.00019427814145113364
-0.00030175115587090934
-0.0003100183108262768
-0.0002521482261387052
-0.0002962397192339978
-0.0003403312123292903
-0.0003127740291447324
-0.00022459104295414727
-0.00010609515526054846
-0.00012814090180819475
-0.0003155297474631883
-0.00029072828259708617
-0.00026592681773098404
-0.00028797256427863044
-0.0003210411841000998
-0.0002521482261387052
-0.00015294236667429682
-0.0002604153810940725
-0.0003651326771953924
-0.00046709425497825643
-0.00043678135347524285
-0.0003816669871061273
-0.0004147356069275966
-0.000500162874799726
-0.0007178646219577333
-0.0007399103685053794
-0.000731643213550012
-0.0006572388189517057
-0.0005084300297550932
-0.0005525215228503861
-0.000629681635767148
-0.0006434602273594267
-0.0006186587624933248
-0.0005304757763027395
-0.0005690558327611206
-0.0006351930724040594
-0.0007647118333714817
-0.0007647118333714817
-0.00065448310063325
-0.0006517273823147941
-0.0006269259174486923
-0.0005883458609903113
-0.0006131473258564133
-0.0006186587624933248
-0.0005938572976272227
-0.0006241701991302363
-0.0005938572976272227
-0.0005414986495765627
-0.0005966130159456783
-0.0006214144808117806
-0.0005855901426718552
-0.0005938572976272227
-0.0005525215228503861
-0.0005304757763027395
-0.0005056743114366376
-0.00048362856488899143
-0.0005745672693980323
-0.0005084300297550932
-0.00040922417029068495
-0.0005111857480735491
-0.000629681635767148
-0.0006324373540856038
-0.0005855901426718552
-0.0005663001144426648
-0.0005718115510795765
-0.0006103916075379574
-0.0006710174105439848
-0.0005993687342641343
-0.0005194529030289164
-0.0005470100862134743
-0.0006517273823147941
-0.0007288874952315562
-0.0007233760585946446
-0.0007040860303654542
-0.0006985745937285427
-0.0006655059739070732
-0.0006269259174486923
-0.00060212445258259
-0.00054976580453193
-0.0005084300297550932
-0.0005249643396658282
-0.00047536140993362393
-0.00019152242313267784
8.129369039444505e-05
0.00015845380331120705
-2.342360570687485e-05
-0.0004946514381628143
-0.0009989478904402233
-0.0014674200045777072
-0.0016382745403219659
-0.0013709698634317546
-0.001222161074235142
-0.00104028366521706
-0.0008942305943389032
-0.0007426660868238351
-0.0007509332417792025
-0.0007399103685053794
-0.0006076358892195017
-0.0005635443961242091
-0.0005828344243533996
-0.000615903044174869
-0.0006186587624933248
-0.000629681635767148
-0.0005966130159456783
-0.0005690558327611206
-0.0005745672693980323
-0.0005029185931181816
-0.0004615828183413449
-0.0004974071564812702
-0.000577322987716488
-0.0006103916075379574
-0.000615903044174869
-0.000577322987716488
-0.0004918957198443586
-0.00045882710002288904
-0.0004285141985198755
-0.0004202470435645082
-0.00040371273365377345
-0.00045882710002288904
-0.0005194529030289164
-0.00040646845197222917
-0.00037891126878767127
-0.0005084300297550932
-0.0005552772411688418
-0.0005332314946211955
-0.0004202470435645082
-0.0002989954375524536
-0.00029072828259708617
-0.0002962397192339978
-0.00030175115587090934
-0.0003816669871061273
-0.00037615555046921565
-0.0003375754940108345
-0.00029072828259708617
-0.0003596212405584808
-0.00036237695887693665
-0.00032655262073701135
-0.0003045068741893651
-0.00030175115587090934
-0.00020254529640650095
-0.00011436231021591582
-0.0001997895780880452
-0.0002824611276417188
-0.00023836963454642628
-0.00014743093003738526
-0.000150186648355841
-0.00012814090180819475
-0.00010058371862363688
-0.0001997895780880452
-0.00029348400091554195
-0.0003045068741893651
-0.00023561391622797047
-0.00020530101472495681
-0.0001612095216296642
-9.78280003051811e-05
-0.0003210411841000998
-0.0003871784237430386
-0.000370644113832304
-0.0003513540856031135
-0.0003899341420614945
-0.0003954455786984061
-0.0004918957198443586
-0.0005718115510795765
-0.000629681635767148
-0.0006379487907225153
-0.0005084300297550932
-0.0004781171282520797
-0.0006324373540856038
-0.0006958188754100868
-0.0005855901426718552
-0.0004891400015259028
-0.00047260569161516804
-0.0005194529030289164
-0.0005607886778057534
-0.0005414986495765627
-0.0004974071564812702
-0.0005414986495765627
-0.0005938572976272227
-0.0005745672693980323
-0.0006048801709010458
-0.0005607886778057534
-0.0005966130159456783
-0.0005966130159456783
-0.0005635443961242091
-0.0005470100862134743
-0.0005552772411688418
-0.0004946514381628143
-0.00046433853665980087
-0.00046709425497825643
-0.00045882710002288904
-0.00048087284657053543
-0.00046709425497825643
-0.0005277200579842838
-0.000500162874799726
-0.0004560713817044334
-0.0004285141985198755
-0.00043402563515678713
-0.00048087284657053543
-0.00048638428320744705
-0.0004781171282520797
-0.00048087284657053543
-0.0005111857480735491
-0.0005663001144426648
-0.0005855901426718552
-0.0006407045090409712
-0.0006269259174486923
-0.0004891400015259028
-0.0005029185931181816
-0.0005938572976272227
-0.000668261692225529
-0.0005718115510795765
-0.0005277200579842838
-0.0005718115510795765
-0.0005828344243533996
-0.0006103916075379574
-0.00065448310063325
-0.00060212445258259
-0.0004946514381628143
-0.0004147356069275966
-0.0003403312123292903
-0.0002080567330434125
7.02708171206219e-05
-0.00012814090180819475
-0.0004422927901121546
-0.0008363605096513318
-0.001351679835202564
-0.0015914273289082171
-0.0015308015259021903
-0.0014481299763485164
-0.0012028710460059518
-0.0009934364538033119
-0.0008501391012436108
-0.0006820402838178078
-0.0006241701991302363
-0.0006517273823147941
-0.0006572388189517057
-0.0005663001144426648
-0.0005194529030289164
-0.0005277200579842838
-0.0006517273823147941
-0.0006985745937285427
-0.0006131473258564133
-0.0005607886778057534
-0.00045882710002288904
-0.00047260569161516804
-0.0005470100862134743
-0.0004698499732967123
-0.00035410980392156926
-0.000370644113832304
-0.00048362856488899143
-0.0005745672693980323
-0.00054976580453193
-0.0004974071564812702
-0.000500162874799726
-0.0004891400015259028
-0.00045331566338597764
-0.00045055994506752175
-0.00041749132524605234
-0.00043402563515678713
-0.00041749132524605234
-0.0003430869306477461
-0.0003293083390554673
-0.000370644113832304
-0.00044504850843061025
-0.00040371273365377345
-0.00027694969100480727
-0.00026592681773098404
-0.0003899341420614945
-0.0004422927901121546
-0.0004285141985198755
-0.00040371273365377345
-0.00037615555046921565
-0.0003403312123292903
-0.00028797256427863044
-0.00023561391622797047
-0.0001777438315403989
-0.00013089662012665053
-5.3736507209888505e-05
-0.00014467521171892948
-0.0003485983672846577
-0.00032655262073701135
-0.00023561391622797047
-0.0001997895780880452
-0.00023836963454642628
-0.0002852168459601746
-0.0002521482261387052
-0.00014743093003738526
-0.0001584538033112084
-0.00010609515526054846
-0.00014467521171892948
-0.0002631710994125282
-0.00024112535286488197
-0.00018049954985885472
-0.00029072828259708617
-0.0004202470435645082
-0.00044504850843061025
-0.0004147356069275966
-0.0005332314946211955
-0.00060212445258259
-0.0005387429312581068
-0.0005304757763027395
-0.0005304757763027395
-0.0005800787060349438
-0.0006434602273594267
-0.0006847960021362637
-0.0006434602273594267
-0.0005800787060349438
-0.0005552772411688418
-0.0006131473258564133
-0.0006269259174486923
-0.0005552772411688418
-0.0004781171282520797
-0.0005194529030289164
-0.0005966130159456783
-0.0006627502555886173
-0.0006847960021362637
-0.000720620340276189
-0.0007371546501869236
-0.0006627502555886173
-0.0005718115510795765
-0.0005470100862134743
-0.0005690558327611206
-0.0005359872129396513
-0.00054976580453193
-0.0006241701991302363
-0.0005993687342641343
-0.0005359872129396513
-0.00060212445258259
-0.0006875517204547195
-0.0006517273823147941
-0.0005552772411688418
-0.0004615828183413449
-0.0004202470435645082
-0.00046709425497825643
-0.0003816669871061273
-0.0003045068741893651
-0.00043678135347524285
-0.0005828344243533996
-0.0005580329594872974
-0.0006076358892195017
-0.000615903044174869
-0.0005277200579842838
-0.0005111857480735491
-0.0005938572976272227
-0.0005883458609903113
-0.0005745672693980323
-0.0005387429312581068
-0.0005166971847104609
-0.0005056743114366376
-0.0005580329594872974
-0.000615903044174869
-0.00054976580453193
-0.0005111857480735491
-0.00045055994506752175
-0.0004891400015259028
-0.0005056743114366376
-0.0003844227054245829
-0.0002080567330434125
2.3423605706873515e-05
0.00026041538109407124
0.0002686825360494386
-7.027081712062322e-05
-0.0005993687342641343
-0.001120199496452278
-0.001417817074845503
-0.0014867100328068976
-0.00130207690547036
-0.0010816194399938968
-0.0008887191577019918
-0.0006930631570916311
-0.0005552772411688418
-0.00044504850843061025
-0.00048087284657053543
-0.0006076358892195017
-0.0005607886778057534
-0.0004698499732967123
-0.0003954455786984061
-0.00037339983215075977
-0.0003871784237430386
-0.00040095701533531767
-0.00040646845197222917
-0.0003375754940108345
-0.0003045068741893651
-0.0003458426489662019
-0.00040922417029068495
-0.00037339983215075977
-0.0003375754940108345
-0.0003651326771953924
-0.0002466367895017936
-8.680512703135793e-05
-0.00015294236667429682
-0.0003458426489662019
-0.0003954455786984061
-0.00037891126878767127
-0.0002521482261387052
-0.00015569808499275262
-0.00016947667658503157
-0.00014743093003738526
-0.00018601098649576628
-0.0003430869306477461
-0.0004257584802014197
-0.00037615555046921565
-0.00035410980392156926
-0.0002852168459601746
-0.0001612095216296642
-0.00019152242313267784
-0.0003155297474631883
-0.0003568655222400251
-0.0002631710994125282
-0.00021632388799877996
-0.0002824611276417188
-0.0003210411841000998
-0.00037891126878767127
-0.00037615555046921565
-0.00032379690241855563
-0.00023561391622797047
-0.00017223239490348733
-9.78280003051811e-05
-7.57822537575348e-05
-6.200366216525588e-05
3.444647898069667e-05
4.546935225451981e-05
-7.57822537575348e-05
-5.6492225528344285e-05
8.68051270313566e-05
0.00011436231021591448
9.23165636682682e-05
4.271363393606403e-05
-9.64501411459592e-06
-8.956084534981374e-05
-0.00015294236667429682
-0.00014191949340047367
-0.0001171180285343716
-0.00022459104295414727
-0.0002989954375524536
-0.00029348400091554195
-0.0003210411841000998
-0.00030175115587090934
-0.0003348197756923787
-0.00037615555046921565
-0.0003375754940108345
-0.00028797256427863044
-0.00032379690241855563
-0.0003899341420614945
