0.00014743093003738393
0.0001253851834897376
0.00011160659189745871
0.00010885087357900291
0.00010609515526054714
8.68051270313566e-05
5.9247943846798756e-05
4.271363393606403e-05
4.546935225451981e-05
4.546935225451981e-05
3.169076066224089e-05
6.8892957961388014e-06
-6.889295796140132e-06
-6.889295796140132e-06
-6.889295796140132e-06
-1.240073243305171e-05
-2.8935042343786426e-05
-4.2713633936065354e-05
-3.995791561760957e-05
-3.169076066224221e-05
-2.8935042343786426e-05
-4.2713633936065354e-05
-4.8225070572976926e-05
-4.2713633936065354e-05
-2.6179324025330647e-05
-1.7912169069963278e-05
-2.066788738841907e-05
-2.6179324025330647e-05
-2.066788738841907e-05
-4.133577477684346e-06
9.64501411459459e-06
9.64501411459459e-06
1.3778591592272275e-06
6.8892957961388014e-06
2.066788738841773e-05
3.169076066224089e-05
2.8935042343785094e-05
1.2400732433050376e-05
9.64501411459459e-06
1.7912169069961946e-05
2.6179324025329308e-05
2.8935042343785094e-05
2.6179324025329308e-05
2.066788738841773e-05
2.3423605706873515e-05
3.169076066224089e-05
3.444647898069667e-05
2.066788738841773e-05
9.64501411459459e-06
6.8892957961388014e-06
9.64501411459459e-06
9.64501411459459e-06
4.133577477683014e-06
-9.64501411459592e-06
-1.5156450751507488e-05
-1.240073243305171e-05
-1.5156450751507488e-05
-3.4446478980697995e-05
-6.751509880216745e-05
-6.751509880216745e-05
-7.57822537575348e-05
-9.78280003051811e-05
-0.00012814090180819475
-0.0001391637750820179
-0.00013089662012665053
-0.00012538518348973897
-0.0001336523384451063
-0.00014743093003738526
-0.00015294236667429682
-0.00014467521171892948
-0.0001336523384451063
-0.0001364080567635621
-0.000150186648355841
-0.0001584538033112084
-0.00015294236667429682
-0.00014191949340047367
-0.00014467521171892948
-0.00016672095826657574
-0.0001777438315403989
-0.00010058371862363688
0.00012814090180819342
0.0004478042267490647
0.0006599945372701603
0.0006214144808117793
0.0003982012970168605
6.475938048371032e-05
-0.0004285141985198755
-0.0009658792706187539
-0.0012772754406042577
-0.0013075883421072713
-0.0011780695811398495
-0.0010099707637140464
-0.0008611619745174342
-0.0007095974670023658
-0.0005442543678950186
-0.00039268986037995033
-0.00028797256427863044
-0.00021632388799877996
-0.00018049954985885472
-0.00016396523994811996
-0.00014191949340047367
-0.0001226294651712832
-0.00010885087357900426
-0.00011160659189746003
-0.0001171180285343716
-0.00010885087357900426
-9.231656366826955e-05
-7.85379720759906e-05
-7.85379720759906e-05
-8.404940871290214e-05
-8.129369039444639e-05
-6.475938048371164e-05
-5.098078889143272e-05
-5.098078889143272e-05
-5.3736507209888505e-05
-4.8225070572976926e-05
-3.4446478980697995e-05
-1.240073243305171e-05
-1.377859159228559e-06
1.3778591592272275e-06
1.2400732433050376e-05
3.9957915617608246e-05
6.751509880216611e-05
0.00010609515526054714
0.00011987374685282605
0.00014467521171892812
0.00017498811322194178
0.00018876670481422076
0.0001832552681773092
0.00017498811322194178
0.00017498811322194178
0.00017774383154039756
0.000172232394903486
0.00015018664835583973
0.00012262946517128183
0.00010609515526054714
0.00010333943694209132
9.507228198672396e-05
7.30265354390777e-05
4.82250705729756e-05
3.720219729915245e-05
3.720219729915245e-05
3.720219729915245e-05
2.6179324025329308e-05
1.2400732433050376e-05
1.3778591592272275e-06
-1.377859159228559e-06
6.8892957961388014e-06
1.3778591592272275e-06
-1.5156450751507488e-05
-2.6179324025330647e-05
-2.8935042343786426e-05
-2.066788738841907e-05
-1.7912169069963278e-05
-3.4446478980697995e-05
-4.5469352254521147e-05
-3.995791561760957e-05
-2.6179324025330647e-05
-1.5156450751507488e-05
-2.066788738841907e-05
-2.6179324025330647e-05
-2.066788738841907e-05
1.3778591592272275e-06
1.5156450751506162e-05
1.5156450751506162e-05
6.8892957961388014e-06
1.2400732433050376e-05
2.8935042343785094e-05
4.271363393606403e-05
3.720219729915245e-05
2.066788738841773e-05
1.7912169069961946e-05
3.720219729915245e-05
5.9247943846798756e-05
5.649222552834297e-05
4.271363393606403e-05
3.444647898069667e-05
4.271363393606403e-05
5.098078889143139e-05
5.098078889143139e-05
3.9957915617608246e-05
2.3423605706873515e-05
2.3423605706873515e-05
3.9957915617608246e-05
4.546935225451981e-05
2.8935042343785094e-05
6.8892957961388014e-06
-6.889295796140132e-06
-1.5156450751507488e-05
-3.4446478980697995e-05
-5.6492225528344285e-05
-7.85379720759906e-05
-8.680512703135793e-05
-9.507228198672531e-05
-0.00010609515526054846
-0.0001226294651712832
-0.00013089662012665053
-0.00012814090180819475
-0.00012538518348973897
-0.00013089662012665053
-0.00014191949340047367
-0.00014743093003738526
-0.0001391637750820179
-0.00012538518348973897
-0.0001226294651712832
-0.00013089662012665053
-0.0001391637750820179
-0.0001364080567635621
-0.00013089662012665053
-0.0001391637750820179
-0.0001198737468528274
1.7912169069961946e-05
0.000301751155870908
0.0005911015793087656
0.0007123531853208202
0.0005580329594872961
0.00024112535286488067
-0.00019427814145113364
-0.0007151089036392773
-0.0011036651865415433
-0.0012249167925535982
-0.0011890924544136726
-0.001056817975127795
-0.000899742030975815
-0.0007509332417792025
-0.0005938572976272227
-0.00043953707179369863
-0.0003155297474631883
-0.00022459104295414727
-0.0001584538033112084
-0.0001171180285343716
-0.00010333943694209268
-0.00010058371862363688
-8.680512703135793e-05
-7.027081712062322e-05
-5.6492225528344285e-05
-5.9247943846800084e-05
-6.475938048371164e-05
-5.6492225528344285e-05
-3.995791561760957e-05
-2.8935042343786426e-05
-3.720219729915378e-05
-4.5469352254521147e-05
-3.995791561760957e-05
-1.7912169069963278e-05
-1.377859159228559e-06
1.3778591592272275e-06
-4.133577477684346e-06
1.3778591592272275e-06
2.066788738841773e-05
3.9957915617608246e-05
4.82250705729756e-05
5.373650720988717e-05
7.02708171206219e-05
0.00013089662012664922
0.00014743093003738393
0.00015845380331120705
0.0001694766765850302
0.00018876670481422076
0.000210812451361867
0.0002135681696803228
0.00019978957808804387
0.0001832552681773092
0.00017498811322194178
0.00017498811322194178
0.00016396523994811866
0.00013365233844510492
0.00010058371862363556
8.956084534981241e-05
8.68051270313566e-05
7.853797207598924e-05
5.649222552834297e-05
3.169076066224089e-05
1.5156450751506162e-05
1.7912169069961946e-05
2.066788738841773e-05
9.64501411459459e-06
-1.240073243305171e-05
-2.6179324025330647e-05
-2.342360570687485e-05
-1.7912169069963278e-05
-2.8935042343786426e-05
-4.5469352254521147e-05
-5.3736507209888505e-05
-5.098078889143272e-05
-3.720219729915378e-05
-3.4446478980697995e-05
-3.4446478980697995e-05
-3.720219729915378e-05
-2.066788738841907e-05
6.8892957961388014e-06
2.066788738841773e-05
2.3423605706873515e-05
2.8935042343785094e-05
4.546935225451981e-05
7.02708171206219e-05
8.68051270313566e-05
9.23165636682682e-05
8.68051270313566e-05
8.956084534981241e-05
0.00010609515526054714
0.00011711802853437029
0.00010885087357900291
0.00010058371862363556
0.00010333943694209132
0.00011711802853437029
0.0001253851834897376
0.00011711802853437029
9.782800030517979e-05
9.23165636682682e-05
9.507228198672396e-05
9.782800030517979e-05
9.23165636682682e-05
7.02708171206219e-05
5.649222552834297e-05
6.200366216525454e-05
6.475938048371032e-05
5.9247943846798756e-05
3.720219729915245e-05
4.133577477683014e-06
6.8892957961388014e-06
4.133577477683014e-06
-2.066788738841907e-05
-4.8225070572976926e-05
-6.475938048371164e-05
-6.475938048371164e-05
-6.475938048371164e-05
-7.57822537575348e-05
-9.231656366826955e-05
-9.78280003051811e-05
-8.956084534981374e-05
-7.85379720759906e-05
-8.680512703135793e-05
-9.78280003051811e-05
-9.78280003051811e-05
-9.507228198672531e-05
-8.680512703135793e-05
-8.404940871290214e-05
-9.507228198672531e-05
-0.00010609515526054846
-0.00010058371862363688
-5.098078889143272e-05
9.23165636682682e-05
0.0003982012970168605
0.0007151089036392759
0.0007812461432822147
0.000637948790722514
0.00037064411383230263
-6.751509880216745e-05
-0.0006269259174486923
-0.0010953980315861755
-0.0012800311589227138
-0.001233183947508965
-0.0010843751583123526
-0.0009272992141603728
-0.0007509332417792025
-0.00054976580453193
-0.00037615555046921565
-0.00027143825436789566
-0.00020254529640650095
-0.000150186648355841
-0.00010609515526054846
-7.57822537575348e-05
-6.751509880216745e-05
-7.302653543907902e-05
-7.302653543907902e-05
-6.475938048371164e-05
-4.5469352254521147e-05
-3.720219729915378e-05
-4.2713633936065354e-05
-4.8225070572976926e-05
-4.2713633936065354e-05
-2.342360570687485e-05
-1.5156450751507488e-05
-1.7912169069963278e-05
-2.066788738841907e-05
-1.240073243305171e-05
4.133577477683014e-06
2.3423605706873515e-05
3.444647898069667e-05
3.720219729915245e-05
4.82250705729756e-05
7.853797207598924e-05
0.00010885087357900291
0.00013640805676356078
0.00015845380331120705
0.00019152242313267648
0.00022734676127260172
0.00024663678950179223
0.0002493925078202481
0.0002549039444571596
0.0002686825360494386
0.0002824611276417174
0.0002769496910048059
0.0002576596627756154
0.00023561391622796914
0.0002190796063172344
0.0002135681696803228
0.00019978957808804387
0.000172232394903486
0.00014467521171892812
0.00013089662012664922
0.00012814090180819342
0.00011711802853437029
9.507228198672396e-05
7.578225375753347e-05
7.02708171206219e-05
7.853797207598924e-05
8.404940871290084e-05
7.853797207598924e-05
6.200366216525454e-05
5.373650720988717e-05
5.9247943846798756e-05
6.475938048371032e-05
5.373650720988717e-05
3.720219729915245e-05
2.066788738841773e-05
2.3423605706873515e-05
3.169076066224089e-05
2.6179324025329308e-05
1.2400732433050376e-05
1.3778591592272275e-06
-1.377859159228559e-06
1.2400732433050376e-05
2.066788738841773e-05
9.64501411459459e-06
4.133577477683014e-06
6.8892957961388014e-06
1.7912169069961946e-05
2.3423605706873515e-05
1.7912169069961946e-05
1.2400732433050376e-05
1.5156450751506162e-05
2.8935042343785094e-05
4.546935225451981e-05
5.649222552834297e-05
5.098078889143139e-05
5.098078889143139e-05
6.475938048371032e-05
7.853797207598924e-05
8.129369039444505e-05
7.02708171206219e-05
5.9247943846798756e-05
6.751509880216611e-05
7.853797207598924e-05
7.578225375753347e-05
6.200366216525454e-05
5.098078889143139e-05
4.82250705729756e-05
3.720219729915245e-05
2.066788738841773e-05
1.3778591592272275e-06
-6.889295796140132e-06
-9.64501411459592e-06
-1.7912169069963278e-05
-4.5469352254521147e-05
-7.302653543907902e-05
-7.85379720759906e-05
-7.027081712062322e-05
-6.200366216525588e-05
-7.302653543907902e-05
-8.680512703135793e-05
-8.956084534981374e-05
-8.129369039444639e-05
-7.027081712062322e-05
-7.57822537575348e-05
-8.404940871290214e-05
-8.956084534981374e-05
-7.85379720759906e-05
-6.751509880216745e-05
-7.027081712062322e-05
-9.507228198672531e-05
-8.956084534981374e-05
2.066788738841773e-05
0.0002989954375524522
0.0006462159456778814
0.0007867575799191265
0.0006627502555886161
0.0004092241702906837
3.9957915617608246e-05
-0.00046709425497825643
-0.000976902143892577
-0.0012359396658274211
-0.001233183947508965
-0.0010843751583123526
-0.0009107649042496381
-0.0007509332417792025
-0.0005828344243533996
-0.00041197988860914084
-0.00027419397268635144
-0.00018325526817731047
-0.00012538518348973897
-9.78280003051811e-05
-8.129369039444639e-05
-6.200366216525588e-05
-4.5469352254521147e-05
-3.995791561760957e-05
-4.2713633936065354e-05
-4.5469352254521147e-05
-3.720219729915378e-05
-2.342360570687485e-05
-1.7912169069963278e-05
-2.6179324025330647e-05
-3.169076066224221e-05
-2.342360570687485e-05
-6.889295796140132e-06
1.3778591592272275e-06
-4.133577477684346e-06
-6.889295796140132e-06
6.8892957961388014e-06
2.8935042343785094e-05
4.82250705729756e-05
5.373650720988717e-05
5.649222552834297e-05
0.00010885087357900291
0.00013640805676356078
0.00015294236667429551
0.00016396523994811866
0.0001832552681773092
0.00021632388799877858
0.00024663678950179223
0.0002549039444571596
0.0002493925078202481
0.00024112535286488067
0.00024388107118333642
0.0002493925078202481
0.00023561391622796914
0.00020530101472495543
0.00017774383154039756
0.00016396523994811866
0.0001556980849927513
0.00013640805676356078
0.00010885087357900291
8.68051270313566e-05
7.30265354390777e-05
7.02708171206219e-05
6.475938048371032e-05
4.82250705729756e-05
3.169076066224089e-05
3.169076066224089e-05
3.9957915617608246e-05
4.271363393606403e-05
3.169076066224089e-05
1.2400732433050376e-05
4.133577477683014e-06
1.2400732433050376e-05
1.7912169069961946e-05
9.64501411459459e-06
-6.889295796140132e-06
-1.7912169069963278e-05
-1.5156450751507488e-05
-4.133577477684346e-06
-4.133577477684346e-06
-1.7912169069963278e-05
-2.342360570687485e-05
-1.240073243305171e-05
6.8892957961388014e-06
1.5156450751506162e-05
9.64501411459459e-06
4.133577477683014e-06
1.2400732433050376e-05
3.169076066224089e-05
4.546935225451981e-05
4.271363393606403e-05
3.169076066224089e-05
3.444647898069667e-05
6.200366216525454e-05
8.68051270313566e-05
8.68051270313566e-05
7.578225375753347e-05
7.30265354390777e-05
8.956084534981241e-05
0.00010333943694209132
9.782800030517979e-05
7.853797207598924e-05
6.200366216525454e-05
6.200366216525454e-05
7.30265354390777e-05
7.30265354390777e-05
5.649222552834297e-05
3.169076066224089e-05
3.169076066224089e-05
2.3423605706873515e-05
1.3778591592272275e-06
-1.7912169069963278e-05
-3.169076066224221e-05
-4.2713633936065354e-05
-5.6492225528344285e-05
-7.302653543907902e-05
-9.231656366826955e-05
-9.507228198672531e-05
-8.404940871290214e-05
-7.85379720759906e-05
-8.404940871290214e-05
-0.00010058371862363688
-0.00010058371862363688
-8.680512703135793e-05
-8.129369039444639e-05
-8.956084534981374e-05
-0.00010333943694209268
-0.00010885087357900426
-0.00010333943694209268
-9.78280003051811e-05
-9.231656366826955e-05
-1.7912169069963278e-05
0.0002190796063172344
0.0005773229877164866
0.0007702232700083917
0.000679284565499351
0.0004340256351567857
5.9247943846798756e-05
-0.000447804226749066
-0.000963123552300298
-0.0012690082856488905
-0.0012965654688334484
-0.001164290989547571
-0.0009824135805294888
-0.0007840018616006722
-0.0005800787060349438
-0.00041749132524605234
-0.0003100183108262768
-0.0002218353246356915
-0.00014467521171892948
-9.78280003051811e-05
-8.404940871290214e-05
-8.680512703135793e-05
-8.129369039444639e-05
-6.751509880216745e-05
-5.098078889143272e-05
-5.098078889143272e-05
-5.6492225528344285e-05
-5.3736507209888505e-05
-4.2713633936065354e-05
-2.8935042343786426e-05
-2.342360570687485e-05
-3.169076066224221e-05
-3.720219729915378e-05
-2.342360570687485e-05
-1.377859159228559e-06
1.2400732433050376e-05
9.64501411459459e-06
9.64501411459459e-06
2.6179324025329308e-05
5.649222552834297e-05
7.853797207598924e-05
9.507228198672396e-05
0.00011711802853437029
0.00015294236667429551
0.00018601098649576498
0.00020254529640649968
0.000210812451361867
0.00022734676127260172
0.00025214822613870384
0.0002741939726863501
0.0002769496910048059
0.00026041538109407124
0.00024663678950179223
0.00024112535286488067
0.0002383696345464249
0.00021632388799877858
0.00018601098649576498
0.00016120952162966288
0.00015018664835583973
0.00015018664835583973
0.00013640805676356078
0.00011160659189745871
8.404940871290084e-05
7.853797207598924e-05
8.404940871290084e-05
8.129369039444505e-05
6.751509880216611e-05
5.098078889143139e-05
4.546935225451981e-05
5.9247943846798756e-05
6.475938048371032e-05
4.82250705729756e-05
2.6179324025329308e-05
1.2400732433050376e-05
1.5156450751506162e-05
1.5156450751506162e-05
1.3778591592272275e-06
-1.5156450751507488e-05
-2.6179324025330647e-05
-1.7912169069963278e-05
-6.889295796140132e-06
-1.240073243305171e-05
-2.8935042343786426e-05
-3.4446478980697995e-05
-2.342360570687485e-05
-4.133577477684346e-06
-1.377859159228559e-06
-1.240073243305171e-05
-2.066788738841907e-05
-9.64501411459592e-06
1.5156450751506162e-05
2.3423605706873515e-05
9.64501411459459e-06
-1.377859159228559e-06
4.133577477683014e-06
2.6179324025329308e-05
4.82250705729756e-05
5.098078889143139e-05
3.9957915617608246e-05
3.720219729915245e-05
5.098078889143139e-05
6.475938048371032e-05
5.9247943846798756e-05
3.720219729915245e-05
2.6179324025329308e-05
3.444647898069667e-05
4.271363393606403e-05
2.066788738841773e-05
6.8892957961388014e-06
9.64501411459459e-06
1.2400732433050376e-05
-4.133577477684346e-06
-2.8935042343786426e-05
-5.098078889143272e-05
-5.3736507209888505e-05
-5.3736507209888505e-05
-6.751509880216745e-05
-9.231656366826955e-05
-0.00011160659189746003
-0.00010609515526054846
-8.956084534981374e-05
-8.129369039444639e-05
-9.507228198672531e-05
-0.00011436231021591582
-0.00011436231021591582
-9.507228198672531e-05
-8.404940871290214e-05
-9.507228198672531e-05
-0.00011436231021591582
-0.0001198737468528274
-0.00010058371862363688
-9.231656366826955e-05
-0.00010609515526054846
-9.231656366826955e-05
5.9247943846798756e-05
0.00037615555046921414
0.0006655059739070718
0.0007040860303654528
0.0004974071564812689
0.00018049954985885336
-0.00024388107118333775
-0.0007592003967345699
-0.001158779552910659
-0.0012827868772411696
-0.0012028710460059518
-0.001026505073624781
-0.0008391162279697878
-0.0006627502555886173
-0.0005111857480735491
-0.00037615555046921565
-0.00026592681773098404
-0.0001612095216296642
-9.507228198672531e-05
-8.956084534981374e-05
-0.00010333943694209268
-8.956084534981374e-05
-5.3736507209888505e-05
-2.8935042343786426e-05
-4.2713633936065354e-05
-7.302653543907902e-05
-7.302653543907902e-05
-3.169076066224221e-05
6.8892957961388014e-06
-6.889295796140132e-06
-4.5469352254521147e-05
-5.3736507209888505e-05
-1.5156450751507488e-05
2.8935042343785094e-05
2.6179324025329308e-05
-1.5156450751507488e-05
-2.8935042343786426e-05
8.404940871290084e-05
0.00010333943694209132
6.751509880216611e-05
5.098078889143139e-05
0.00010058371862363556
0.0001832552681773092
0.0002190796063172344
0.00018876670481422076
0.00016120952162966288
0.00019427814145113231
0.0002769496910048059
0.00032104118410009855
0.00027143825436789435
0.000210812451361867
0.00020805673304341124
0.00027143825436789435
0.00031001831082627527
0.00025214822613870384
0.0001556980849927513
0.0001253851834897376
0.0001832552681773092
0.00023561391622796914
0.00019152242313267648
8.956084534981241e-05
4.546935225451981e-05
0.00010058371862363556
0.00017774383154039756
0.00016672095826657444
5.9247943846798756e-05
-9.64501411459592e-06
3.9957915617608246e-05
0.00013916377508201656
0.00014743093003738393
5.098078889143139e-05
-3.995791561760957e-05
-9.64501411459592e-06
9.507228198672396e-05
0.00013089662012664922
3.9957915617608246e-05
-7.302653543907902e-05
-5.9247943846800084e-05
6.200366216525454e-05
0.00013916377508201656
7.02708171206219e-05
-5.9247943846800084e-05
-7.302653543907902e-05
5.649222552834297e-05
0.00017498811322194178
0.00013089662012664922
-1.7912169069963278e-05
-7.027081712062322e-05
4.82250705729756e-05
0.0001970338597695881
0.0001832552681773092
2.3423605706873515e-05
-8.404940871290214e-05
4.133577477683014e-06
0.00018049954985885336
0.0002135681696803228
5.9247943846798756e-05
-7.57822537575348e-05
-1.5156450751507488e-05
0.00016672095826657444
0.0002383696345464249
0.00010609515526054714
-5.9247943846800084e-05
0.00010609515526054714
0.00020805673304341124
0.00011987374685282605
-5.098078889143272e-05
-8.129369039444639e-05
5.9247943846798756e-05
0.0001832552681773092
0.00011436231021591448
-7.302653543907902e-05
-0.0001584538033112084
-4.8225070572976926e-05
9.782800030517979e-05
7.853797207598924e-05
-0.00010058371862363688
-0.0002190796063172357
-0.0001391637750820179
2.6179324025329308e-05
5.373650720988717e-05
-9.231656366826955e-05
-0.00022734676127260308
-0.00017223239490348733
4.133577477683014e-06
7.30265354390777e-05
-5.6492225528344285e-05
-0.0002218353246356915
-0.00020530101472495681
-2.066788738841907e-05
9.507228198672396e-05
-2.066788738841907e-05
-0.00022734676127260308
-0.00026592681773098404
-5.9247943846800084e-05
0.00020805673304341124
0.00035135408560311223
0.0003844227054245816
0.0005166971847104594
0.000679284565499351
0.0005718115510795751
0.00011436231021591448
-0.0005855901426718552
-0.001147756679636836
-0.0012359396658274211
-0.0010650851300831622
-0.0009906807354848563
-0.0010650851300831622
-0.0010623294117647064
-0.0007592003967345699
-0.0003348197756923787
-0.00017223239490348733
-0.0003320640573739229
-0.000447804226749066
-0.00024939250782024937
8.68051270313566e-05
0.0001970338597695881
-2.6179324025330647e-05
-0.00027143825436789566
-0.00023285819790951464
2.066788738841773e-05
0.00016396523994811866
6.8892957961388014e-06
-0.0002521482261387052
-0.0002962397192339978
-0.00011436231021591582
4.271363393606403e-05
-3.4446478980697995e-05
-0.0003596212405584808
-0.00023561391622797047
-6.475938048371164e-05
-6.475938048371164e-05
-0.00022459104295414727
-0.0003320640573739229
-0.00023285819790951464
-3.4446478980697995e-05
3.169076066224089e-05
-9.78280003051811e-05
-0.00023285819790951464
-0.00017223239490348733
2.8935042343785094e-05
0.00014191949340047234
3.444647898069667e-05
-0.00014191949340047367
-0.00015294236667429682
3.9957915617608246e-05
0.00019978957808804387
0.00012814090180819342
-0.00010885087357900426
-0.00023836963454642628
-0.00011160659189746003
9.23165636682682e-05
8.68051270313566e-05
-0.0001391637750820179
-0.00028797256427863044
-0.0001336523384451063
0.00014467521171892812
0.0001694766765850302
-0.00014191949340047367
-0.0003816669871061273
-0.00019152242313267784
0.000263171099412527
0.0004863842832074457
0.00026041538109407124
-0.00010333943694209268
-0.0001198737468528274
0.0002493925078202481
0.0005332314946211942
0.0003623769588769353
-2.066788738841907e-05
-9.231656366826955e-05
0.0002769496910048059
0.0006489716639963371
0.0005800787060349425
0.00020530101472495543
6.475938048371032e-05
0.0003954455786984048
0.0008225819180590517
0.0008859634393835348
0.0006269259174486908
0.0005001628747997245
0.0007454218051422897
0.0010981537499046305
0.0011753138628213923
0.0009410778057526506
0.000717864621957732
0.0007399103685053779
0.0008997420309758136
0.0009162763408865484
0.000717864621957732
0.0005056743114366363
0.0004863842832074457
0.0006131473258564118
0.0005442543678950173
0.00036788839551384685
0.00032104118410009855
0.00042300276188296266
0.0004918957198443572
0.00040371273365377215
0.00024388107118333642
0.00018876670481422076
0.00027143825436789435
0.00035410980392156795
0.0003072625925078196
0.0001694766765850302
0.00010058371862363556
0.00016672095826657444
0.00025214822613870384
0.0002218353246356902
8.956084534981241e-05
4.133577477683014e-06
4.546935225451981e-05
0.00013089662012664922
0.00011711802853437029
1.3778591592272275e-06
-9.507228198672531e-05
-7.027081712062322e-05
2.8935042343785094e-05
5.649222552834297e-05
-3.169076066224221e-05
-0.0001336523384451063
-0.0001226294651712832
-2.6179324025330647e-05
2.6179324025329308e-05
-3.720219729915378e-05
-0.00014191949340047367
-0.00015569808499275262
-6.475938048371164e-05
9.64501411459459e-06
-3.720219729915378e-05
-0.00014191949340047367
-0.00011160659189746003
0.0001832552681773092
0.0006186587624933234
0.0008225819180590517
0.0006544831006332488
0.00037064411383230263
9.507228198672396e-05
-0.00029072828259708617
-0.0008225819180590531
-0.0012717640039673465
-0.001417817074845503
-0.0012717640039673465
-0.0009906807354848563
-0.0007812461432822162
-0.0006875517204547195
-0.000615903044174869
-0.00046433853665980087
-0.0002686825360494398
-0.00014743093003738526
-0.00019152242313267784
-0.0002962397192339978
-0.0003127740291447324
-0.00021632388799877996
-0.00014191949340047367
-0.0002108124513618684
-0.0003513540856031135
-0.00041197988860914084
-0.00022734676127260308
-0.00024388107118333775
-0.00036788839551384826
-0.00043402563515678713
-0.0003403312123292903
-0.00019427814145113364
-0.00016672095826657574
-0.0002852168459601746
-0.0003844227054245829
-0.0003293083390554673
-0.00018876670481422206
-0.0001364080567635621
-0.00023561391622797047
-0.0003403312123292903
-0.0003045068741893651
-0.00015569808499275262
-6.475938048371164e-05
-0.00012538518348973897
-0.00023561391622797047
-0.00022734676127260308
-8.956084534981374e-05
1.7912169069961946e-05
-1.7912169069963278e-05
-0.00014467521171892948
-0.00018601098649576628
-9.78280003051811e-05
1.2400732433050376e-05
-2.066788738841907e-05
-0.0001584538033112084
-0.00024388107118333775
-0.00019427814145113364
-9.507228198672531e-05
-0.00010058371862363688
-0.00022459104295414727
-0.00032655262073701135
-0.0002962397192339978
-0.00018601098649576628
-0.0001584538033112084
-0.0002631710994125282
-0.00036788839551384826
-0.0003458426489662019
-0.00024112535286488197
-0.00018325526817731047
-0.0002631710994125282
-0.00037615555046921565
-0.0003954455786984061
-0.0003045068741893651
-0.00023010247959105888
-0.00027419397268635144
-0.0003816669871061273
-0.0004147356069275966
-0.0003100183108262768
-0.00018876670481422206
-0.0001997895780880452
-0.00031828546578164407
-0.00037891126878767127
-0.00029072828259708617
-0.00015294236667429682
-0.00013089662012665053
-0.00024112535286488197
-0.0003210411841000998
-0.00024939250782024937
-0.00011160659189746003
-6.475938048371164e-05
-0.0001612095216296642
-0.00026592681773098404
-0.00010333943694209268
-4.2713633936065354e-05
-0.00013089662012665053
-0.0002521482261387052
-0.00024939250782024937
-0.0001364080567635621
-6.751509880216745e-05
-0.0001364080567635621
-0.00024939250782024937
-0.00027143825436789566
-0.00018325526817731047
-0.00011160659189746003
-0.0001584538033112084
-0.0002686825360494398
-0.0003045068741893651
-0.00023285819790951464
-0.0001584538033112084
-0.00019703385976958942
-0.0003348197756923787
-0.0004285141985198755
-0.00035410980392156926
-0.00021356816968032413
-0.00019703385976958942
-0.0003403312123292903
-0.00046709425497825643
-0.00043953707179369863
-0.0003155297474631883
-0.0002631710994125282
-0.00036788839551384826
-0.0004974071564812702
-0.0004918957198443586
-0.0003651326771953924
-0.00027143825436789566
-0.0003430869306477461
-0.0004891400015259028
-0.0005249643396658282
-0.00040095701533531767
-0.00027694969100480727
-0.0003210411841000998
-0.00046709425497825643
-0.0005166971847104609
-0.0004147356069275966
-0.00027970540932326305
-0.00017223239490348733
1.5156450751506162e-05
0.0002989954375524522
0.0004533156633859763
0.0003954455786984048
0.00012814090180819342
-0.0003596212405584808
-0.0009355663691157402
-0.0013819927367055777
-0.0015308015259021903
-0.001483954314488442
-0.0013682141451132987
-0.001233183947508965
-0.0010375279468986046
-0.0008032918898298626
-0.0006241701991302363
-0.0005359872129396513
-0.0004891400015259028
-0.0004312699168383313
-0.00036788839551384826
-0.00032655262073701135
-0.0003293083390554673
-0.00035410980392156926
-0.0003293083390554673
-0.00030175115587090934
-0.0003045068741893651
-0.00032655262073701135
-0.0003320640573739229
-0.0003127740291447324
-0.00029072828259708617
-0.00028797256427863044
-0.00030175115587090934
-0.0003127740291447324
-0.0002989954375524536
-0.00026592681773098404
-0.0002466367895017936
-0.0002466367895017936
-0.0002466367895017936
-0.00022459104295414727
-0.00018876670481422206
-0.00015569808499275262
-0.00014191949340047367
-0.0001364080567635621
-0.0001198737468528274
-8.404940871290214e-05
-4.5469352254521147e-05
-3.169076066224221e-05
-3.169076066224221e-05
-2.6179324025330647e-05
-9.64501411459592e-06
6.8892957961388014e-06
4.133577477683014e-06
-2.066788738841907e-05
-4.2713633936065354e-05
-4.8225070572976926e-05
-4.8225070572976926e-05
-6.200366216525588e-05
-8.956084534981374e-05
-0.0001171180285343716
-0.00012814090180819475
-0.00012814090180819475
-0.0001336523384451063
-0.00015294236667429682
-0.00017498811322194308
-0.00018049954985885472
-0.00017498811322194308
-0.00016947667658503157
-0.0001777438315403989
-0.00019703385976958942
-0.0001997895780880452
-0.00018601098649576628
-0.0001777438315403989
-0.00018876670481422206
-0.0002108124513618684
-0.0002218353246356915
-0.00021632388799877996
-0.0002108124513618684
-0.00021632388799877996
-0.00023285819790951464
-0.00023836963454642628
-0.00022734676127260308
-0.00021356816968032413
-0.0002080567330434125
-0.00021632388799877996
-0.00022459104295414727
-0.0002218353246356915
-0.0001997895780880452
-0.00019427814145113364
-0.00020530101472495681
-0.0001997895780880452
-0.00018325526817731047
-0.00016947667658503157
-0.00017498811322194308
-0.00019152242313267784
-0.00019703385976958942
-0.00018601098649576628
-0.00017223239490348733
-0.00016947667658503157
-0.00017498811322194308
-0.00018325526817731047
-0.0001777438315403989
-0.00016947667658503157
-0.00016947667658503157
-0.00018049954985885472
-0.00019427814145113364
-0.0001997895780880452
-0.00019152242313267784
-0.00019152242313267784
-0.0001997895780880452
-0.00021356816968032413
-0.00021356816968032413
-0.0002080567330434125
-0.0002108124513618684
-0.00023010247959105888
-0.0002466367895017936
-0.00025765966277561676
-0.0002604153810940725
-0.00027419397268635144
-0.0002989954375524536
-0.00032379690241855563
-0.00032655262073701135
-0.0003155297474631883
-0.0003045068741893651
-0.0003100183108262768
-0.00032655262073701135
-0.0003348197756923787
-0.0003210411841000998
-0.0003127740291447324
-0.0003127740291447324
-0.0003293083390554673
-0.0003375754940108345
-0.0003293083390554673
-0.00031828546578164407
-0.0003155297474631883
-0.00032655262073701135
-0.00027694969100480727
-7.027081712062322e-05
0.0002769496910048059
0.0004974071564812689
0.0004367813534752416
0.00020254529640649968
-0.0001336523384451063
-0.0005966130159456783
-0.0011174437781338222
-0.0014701757228961628
-0.0015335572442206462
-0.001401282764934768
-0.0012111382009613188
-0.001015482200350958
-0.0008363605096513318
-0.000668261692225529
-0.0005387429312581068
-0.00035410980392156926
-0.0003100183108262768
-0.0002989954375524536
-0.0002962397192339978
-0.00027970540932326305
-0.0002604153810940725
-0.0002549039444571609
-0.0002631710994125282
-0.0002686825360494398
-0.0002549039444571609
-0.00023836963454642628
-0.00023285819790951464
-0.00024112535286488197
-0.0002466367895017936
-0.00024388107118333775
-0.00022459104295414727
-0.0002080567330434125
-0.0001997895780880452
-0.00020254529640650095
-0.00019427814145113364
-0.00017223239490348733
-0.00014743093003738526
-0.0001391637750820179
-0.0001364080567635621
-0.0001198737468528274
-8.680512703135793e-05
-5.6492225528344285e-05
-3.720219729915378e-05
-2.6179324025330647e-05
-1.240073243305171e-05
1.5156450751506162e-05
4.271363393606403e-05
5.373650720988717e-05
4.82250705729756e-05
3.720219729915245e-05
3.9957915617608246e-05
4.82250705729756e-05
3.9957915617608246e-05
1.5156450751506162e-05
-9.64501411459592e-06
-2.066788738841907e-05
-1.7912169069963278e-05
-2.342360570687485e-05
-4.5469352254521147e-05
-6.751509880216745e-05
-7.85379720759906e-05
-7.57822537575348e-05
-7.302653543907902e-05
-9.231656366826955e-05
-0.00011160659189746003
-0.0001198737468528274
-0.0001171180285343716
-0.00011436231021591582
-0.0001198737468528274
-0.0001391637750820179
-0.000150186648355841
-0.00014743093003738526
-0.0001391637750820179
-0.0001391637750820179
-0.00015569808499275262
-0.00016947667658503157
-0.00016672095826657574
-0.000150186648355841
-0.00014467521171892948
-0.00015294236667429682
-0.0001612095216296642
-0.0001364080567635621
-0.00012538518348973897
-0.00013089662012665053
-0.0001364080567635621
-0.0001336523384451063
-0.0001198737468528274
-0.00010885087357900426
-0.00011436231021591582
-0.0001226294651712832
-0.0001226294651712832
-0.00011160659189746003
-0.00010333943694209268
-0.00011160659189746003
-0.0001198737468528274
-0.00011436231021591582
-9.507228198672531e-05
-8.404940871290214e-05
-8.956084534981374e-05
-0.00010333943694209268
-0.00010609515526054846
-9.78280003051811e-05
-8.680512703135793e-05
-8.956084534981374e-05
-0.00010609515526054846
-0.00011160659189746003
-0.00010058371862363688
-8.956084534981374e-05
-9.231656366826955e-05
-0.00011436231021591582
-0.0001391637750820179
-0.00015294236667429682
-0.00014743093003738526
-0.00014743093003738526
-0.00017223239490348733
-0.00020530101472495681
-0.0002218353246356915
-0.00021632388799877996
-0.0002108124513618684
-0.00021632388799877996
-0.00023010247959105888
-0.00023561391622797047
-0.00023010247959105888
-0.0002218353246356915
-0.0002218353246356915
-0.00023285819790951464
-0.00023561391622797047
-0.00022734676127260308
-0.00021632388799877996
-0.0002190796063172357
-0.00022734676127260308
-0.00023561391622797047
-0.00023285819790951464
-0.00017498811322194308
-4.133577477684346e-06
0.00026592681773098274
0.0004808728465705341
0.0004891400015259016
0.00029072828259708476
-3.4446478980697995e-05
-0.0004946514381628143
-0.0010209936369878696
-0.001362702708476387
-0.001401282764934768
-0.0012717640039673465
-0.0011174437781338222
-0.0008005361715114068
-0.0006214144808117806
-0.0004615828183413449
-0.0003651326771953924
-0.0003100183108262768
-0.0002686825360494398
-0.00023561391622797047
-0.00021356816968032413
-0.00020530101472495681
-0.0002080567330434125
-0.0002108124513618684
-0.00020254529640650095
-0.00018876670481422206
-0.00018325526817731047
-0.00019152242313267784
-0.00019703385976958942
-0.00018876670481422206
-0.00017223239490348733
-0.00016396523994811996
-0.00016672095826657574
-0.00017498811322194308
-0.00017223239490348733
-0.00015294236667429682
-0.0001364080567635621
-0.00012814090180819475
-0.00012814090180819475
-0.0001198737468528274
-9.507228198672531e-05
-7.027081712062322e-05
-5.6492225528344285e-05
-4.8225070572976926e-05
-3.4446478980697995e-05
-4.133577477684346e-06
2.8935042343785094e-05
4.271363393606403e-05
4.82250705729756e-05
5.098078889143139e-05
6.200366216525454e-05
7.578225375753347e-05
7.578225375753347e-05
5.9247943846798756e-05
3.9957915617608246e-05
3.444647898069667e-05
3.444647898069667e-05
3.169076066224089e-05
1.5156450751506162e-05
-6.889295796140132e-06
-2.342360570687485e-05
-2.8935042343786426e-05
-2.8935042343786426e-05
-4.5469352254521147e-05
-7.302653543907902e-05
-8.680512703135793e-05
-8.404940871290214e-05
-7.85379720759906e-05
-8.956084534981374e-05
-0.00010609515526054846
-0.00011436231021591582
-0.00010885087357900426
-0.00010333943694209268
-0.00010058371862363688
-0.00011160659189746003
-0.0001198737468528274
-0.00011160659189746003
-9.507228198672531e-05
-8.956084534981374e-05
-9.231656366826955e-05
-8.404940871290214e-05
-6.475938048371164e-05
-5.098078889143272e-05
-5.6492225528344285e-05
-6.751509880216745e-05
-6.751509880216745e-05
-5.3736507209888505e-05
-4.2713633936065354e-05
-4.5469352254521147e-05
-5.9247943846800084e-05
-6.200366216525588e-05
-5.6492225528344285e-05
-5.098078889143272e-05
-6.200366216525588e-05
-7.57822537575348e-05
-7.57822537575348e-05
-5.9247943846800084e-05
-4.2713633936065354e-05
-5.098078889143272e-05
-7.027081712062322e-05
-7.57822537575348e-05
-6.751509880216745e-05
-5.6492225528344285e-05
-5.6492225528344285e-05
-7.302653543907902e-05
-8.680512703135793e-05
-7.85379720759906e-05
-5.9247943846800084e-05
-5.9247943846800084e-05
-7.85379720759906e-05
-9.78280003051811e-05
-0.00010885087357900426
-0.00011436231021591582
-0.00011160659189746003
-0.00012538518348973897
-0.00015569808499275262
-0.00017223239490348733
-0.00017498811322194308
-0.00017223239490348733
-0.0001777438315403989
-0.00018876670481422206
-0.00020254529640650095
-0.00019427814145113364
-0.00018049954985885472
-0.0001777438315403989
-0.00018876670481422206
-0.00019703385976958942
-0.00018876670481422206
-0.00017498811322194308
-0.00017223239490348733
-0.00018601098649576628
-0.00019427814145113364
-0.00019152242313267784
-0.00018325526817731047
-0.00012538518348973897
5.098078889143139e-05
0.0003127740291447311
0.0005635443961242077
0.0006627502555886161
0.000508430029755092
0.00016120952162966288
-0.00035410980392156926
-0.0009162763408865498
-0.0012800311589227138
-0.001208382482642863
-0.0010898865949492643
-0.000952100679026475
-0.0008005361715114068
-0.0006269259174486923
-0.0004781171282520797
-0.0003844227054245829
-0.00031828546578164407
-0.0002549039444571609
-0.00020254529640650095
-0.00018325526817731047
-0.00018601098649576628
-0.00018325526817731047
-0.00017223239490348733
-0.00015294236667429682
-0.00014743093003738526
-0.000150186648355841
-0.00015569808499275262
-0.00014743093003738526
-0.0001336523384451063
-0.0001226294651712832
-0.00012814090180819475
-0.0001336523384451063
-0.00012538518348973897
-0.00010333943694209268
-8.129369039444639e-05
-7.57822537575348e-05
-7.302653543907902e-05
-6.200366216525588e-05
-3.720219729915378e-05
-9.64501411459592e-06
4.133577477683014e-06
1.2400732433050376e-05
2.3423605706873515e-05
5.098078889143139e-05
8.68051270313566e-05
0.00010609515526054714
0.00011160659189745871
0.00011436231021591448
0.00012814090180819342
0.00014467521171892812
0.00015018664835583973
0.00013640805676356078
0.00012262946517128183
0.00011987374685282605
0.00012262946517128183
0.00011711802853437029
9.23165636682682e-05
6.475938048371032e-05
4.82250705729756e-05
4.271363393606403e-05
3.169076066224089e-05
6.8892957961388014e-06
-2.066788738841907e-05
-3.4446478980697995e-05
-3.720219729915378e-05
-3.4446478980697995e-05
-4.5469352254521147e-05
-6.475938048371164e-05
-7.57822537575348e-05
-7.027081712062322e-05
-5.9247943846800084e-05
-5.9247943846800084e-05
-7.027081712062322e-05
-5.9247943846800084e-05
-3.995791561760957e-05
-2.8935042343786426e-05
-2.8935042343786426e-05
-2.8935042343786426e-05
-1.7912169069963278e-05
4.133577477683014e-06
2.066788738841773e-05
2.3423605706873515e-05
2.3423605706873515e-05
2.6179324025329308e-05
4.271363393606403e-05
5.373650720988717e-05
5.373650720988717e-05
3.9957915617608246e-05
3.444647898069667e-05
4.271363393606403e-05
5.098078889143139e-05
4.271363393606403e-05
2.066788738841773e-05
1.5156450751506162e-05
3.169076066224089e-05
3.9957915617608246e-05
3.169076066224089e-05
1.7912169069961946e-05
9.64501411459459e-06
1.2400732433050376e-05
2.066788738841773e-05
1.5156450751506162e-05
-1.377859159228559e-06
-2.066788738841907e-05
-1.5156450751507488e-05
-1.377859159228559e-06
-4.133577477684346e-06
-2.342360570687485e-05
-4.5469352254521147e-05
-5.6492225528344285e-05
-5.3736507209888505e-05
-5.9247943846800084e-05
-8.129369039444639e-05
-0.00010885087357900426
-0.0001226294651712832
-0.00012814090180819475
-0.00012814090180819475
-0.0001336523384451063
-0.000150186648355841
-0.000150186648355841
-0.00014191949340047367
-0.0001364080567635621
-0.00014191949340047367
-0.00015294236667429682
-0.0001584538033112084
-0.000150186648355841
-0.0001391637750820179
-0.0001364080567635621
-0.00014743093003738526
-0.0001612095216296642
-0.0001584538033112084
-0.0001364080567635621
-5.9247943846800084e-05
0.00015018664835583973
0.0004670942549782553
0.0006710174105439835
0.0006269259174486908
0.0004092241702906837
5.098078889143139e-05
-0.0009741464255741213
-0.001274519722285802
-0.0013075883421072713
-0.0011918481727321284
-0.0010320165102616929
-0.0008694291294728014
-0.0006765288471808962
-0.0004918957198443586
-0.00035410980392156926
-0.00027970540932326305
-0.0002218353246356915
-0.00016396523994811996
-0.00012538518348973897
-0.00011160659189746003
-0.0001171180285343716
-0.0001226294651712832
-0.00011160659189746003
-9.231656366826955e-05
-8.404940871290214e-05
-9.231656366826955e-05
-9.78280003051811e-05
-9.231656366826955e-05
-7.57822537575348e-05
-6.751509880216745e-05
-7.027081712062322e-05
-7.57822537575348e-05
-7.027081712062322e-05
-5.3736507209888505e-05
-3.720219729915378e-05
-3.4446478980697995e-05
-3.4446478980697995e-05
-2.6179324025330647e-05
-1.377859159228559e-06
2.8935042343785094e-05
4.546935225451981e-05
5.373650720988717e-05
7.02708171206219e-05
0.00010058371862363556
0.00013640805676356078
0.00015845380331120705
0.00016396523994811866
0.000172232394903486
0.00018876670481422076
0.00020530101472495543
0.00020254529640649968
0.00018601098649576498
0.00016396523994811866
0.0001556980849927513
0.00015018664835583973
0.00013916377508201656
0.00011436231021591448
8.68051270313566e-05
7.30265354390777e-05
6.751509880216611e-05
6.475938048371032e-05
4.546935225451981e-05
2.3423605706873515e-05
1.2400732433050376e-05
1.7912169069961946e-05
2.3423605706873515e-05
1.2400732433050376e-05
-1.377859159228559e-06
-1.5156450751507488e-05
-1.5156450751507488e-05
-9.64501411459592e-06
-3.4446478980697995e-05
-4.5469352254521147e-05
-4.2713633936065354e-05
-3.4446478980697995e-05
-3.4446478980697995e-05
-4.2713633936065354e-05
-5.098078889143272e-05
-4.2713633936065354e-05
-2.6179324025330647e-05
-1.5156450751507488e-05
-2.342360570687485e-05
-3.169076066224221e-05
-2.6179324025330647e-05
-6.889295796140132e-06
4.133577477683014e-06
-1.377859159228559e-06
-1.240073243305171e-05
-9.64501411459592e-06
1.3778591592272275e-06
1.2400732433050376e-05
9.64501411459459e-06
4.133577477683014e-06
1.2400732433050376e-05
2.6179324025329308e-05
3.444647898069667e-05
3.169076066224089e-05
2.3423605706873515e-05
1.7912169069961946e-05
2.3423605706873515e-05
2.8935042343785094e-05
2.6179324025329308e-05
6.8892957961388014e-06
-4.133577477684346e-06
-1.377859159228559e-06
1.3778591592272275e-06
-6.889295796140132e-06
-2.6179324025330647e-05
-4.5469352254521147e-05
-5.6492225528344285e-05
-5.3736507209888505e-05
-5.9247943846800084e-05
-8.129369039444639e-05
-0.00010885087357900426
-0.00012814090180819475
-0.0001198737468528274
-0.00011160659189746003
-0.0001198737468528274
-0.0001364080567635621
-0.00014467521171892948
-0.0001364080567635621
-0.00012814090180819475
-0.00012814090180819475
-0.0001391637750820179
-0.000150186648355841
-0.00014467521171892948
-0.0001336523384451063
-0.00013089662012665053
-0.00014743093003738526
-0.00016672095826657574
-0.00014743093003738526
-1.5156450751507488e-05
0.0002686825360494386
0.0005828344243533982
0.0006847960021362622
0.000560788677805752
-7.57822537575348e-05
-0.0006103916075379574
-0.0011064209048599993
-0.0013351455252918294
-0.0012910540321965367
-0.001120199496452278
-0.0009493449607080192
-0.0007784904249637603
-0.0005993687342641343
-0.0004285141985198755
-0.00030175115587090934
-0.00021632388799877996
-0.00016672095826657574
-0.0001391637750820179
-0.0001171180285343716
-9.78280003051811e-05
-9.231656366826955e-05
-9.507228198672531e-05
-9.78280003051811e-05
-8.680512703135793e-05
-7.302653543907902e-05
-6.751509880216745e-05
-7.027081712062322e-05
-7.85379720759906e-05
-7.027081712062322e-05
-5.3736507209888505e-05
-4.2713633936065354e-05
-4.5469352254521147e-05
-4.8225070572976926e-05
-3.995791561760957e-05
-2.066788738841907e-05
-1.377859159228559e-06
9.64501411459459e-06
9.64501411459459e-06
2.3423605706873515e-05
5.098078889143139e-05
8.129369039444505e-05
0.00010058371862363556
0.00011160659189745871
0.00012814090180819342
0.00016396523994811866
0.00019978957808804387
0.0002135681696803228
0.00021632388799877858
0.0002135681696803228
0.0002218353246356902
0.00023010247959105753
0.00022734676127260172
0.00020254529640649968
0.00017498811322194178
0.00015845380331120705
0.00015018664835583973
0.00013916377508201656
0.00011711802853437029
8.956084534981241e-05
7.578225375753347e-05
7.578225375753347e-05
7.30265354390777e-05
5.649222552834297e-05
3.720219729915245e-05
2.8935042343785094e-05
3.444647898069667e-05
4.271363393606403e-05
3.444647898069667e-05
1.5156450751506162e-05
9.64501411459459e-06
1.7912169069961946e-05
9.64501411459459e-06
-4.133577477684346e-06
-1.5156450751507488e-05
-6.889295796140132e-06
4.133577477683014e-06
6.8892957961388014e-06
4.133577477683014e-06
-1.377859159228559e-06
6.8892957961388014e-06
2.066788738841773e-05
2.8935042343785094e-05
2.3423605706873515e-05
1.5156450751506162e-05
1.7912169069961946e-05
3.444647898069667e-05
4.546935225451981e-05
3.9957915617608246e-05
3.169076066224089e-05
3.444647898069667e-05
4.82250705729756e-05
5.9247943846798756e-05
5.9247943846798756e-05
5.9247943846798756e-05
6.200366216525454e-05
7.30265354390777e-05
7.853797207598924e-05
7.853797207598924e-05
6.751509880216611e-05
5.9247943846798756e-05
6.200366216525454e-05
6.751509880216611e-05
5.9247943846798756e-05
4.82250705729756e-05
3.9957915617608246e-05
4.271363393606403e-05
4.546935225451981e-05
3.720219729915245e-05
1.5156450751506162e-05
-1.377859159228559e-06
-9.64501411459592e-06
-9.64501411459592e-06
-1.5156450751507488e-05
-3.995791561760957e-05
-7.027081712062322e-05
-8.129369039444639e-05
-7.302653543907902e-05
-6.475938048371164e-05
-7.027081712062322e-05
-8.404940871290214e-05
-9.231656366826955e-05
-8.404940871290214e-05
-7.027081712062322e-05
-7.302653543907902e-05
-8.129369039444639e-05
-8.680512703135793e-05
-8.129369039444639e-05
-7.302653543907902e-05
-7.57822537575348e-05
-9.231656366826955e-05
-9.231656366826955e-05
6.8892957961388014e-06
0.0002769496910048059
0.0006103916075379561
0.0007343989318684667
0.0003568655222400236
-1.5156450751507488e-05
-0.0005194529030289164
-0.0010292607919432368
-0.0012938097505149923
-0.0012717640039673465
-0.0010953980315861755
-0.0009080091859311822
-0.000720620340276189
-0.0005470100862134743
-0.0003844227054245829
-0.0002549039444571609
-0.0001584538033112084
-9.78280003051811e-05
-7.85379720759906e-05
-7.027081712062322e-05
-5.098078889143272e-05
-3.169076066224221e-05
-2.6179324025330647e-05
-3.169076066224221e-05
-3.720219729915378e-05
-2.8935042343786426e-05
-1.5156450751507488e-05
-6.889295796140132e-06
-1.5156450751507488e-05
-1.7912169069963278e-05
-1.240073243305171e-05
6.8892957961388014e-06
2.066788738841773e-05
2.066788738841773e-05
1.5156450751506162e-05
2.3423605706873515e-05
4.546935225451981e-05
6.475938048371032e-05
7.30265354390777e-05
7.578225375753347e-05
9.23165636682682e-05
0.00012262946517128183
0.00015845380331120705
0.00017774383154039756
0.00018876670481422076
0.00020254529640649968
0.00023285819790951333
0.0002576596627756154
0.00027143825436789435
0.00027143825436789435
0.000263171099412527
0.0002686825360494386
0.00027143825436789435
0.000263171099412527
0.00024112535286488067
0.0002135681696803228
0.00020254529640649968
0.00019978957808804387
0.00018876670481422076
0.00016396523994811866
0.00014191949340047234
0.00013089662012664922
0.00013365233844510492
0.00013365233844510492
0.00011711802853437029
9.782800030517979e-05
8.956084534981241e-05
9.782800030517979e-05
0.00010333943694209132
7.30265354390777e-05
6.475938048371032e-05
6.751509880216611e-05
6.751509880216611e-05
6.200366216525454e-05
4.82250705729756e-05
3.720219729915245e-05
3.9957915617608246e-05
4.82250705729756e-05
4.82250705729756e-05
3.9957915617608246e-05
3.444647898069667e-05
3.720219729915245e-05
5.098078889143139e-05
5.9247943846798756e-05
5.373650720988717e-05
4.546935225451981e-05
4.82250705729756e-05
6.200366216525454e-05
7.02708171206219e-05
6.475938048371032e-05
5.649222552834297e-05
5.373650720988717e-05
6.200366216525454e-05
7.578225375753347e-05
8.129369039444505e-05
8.129369039444505e-05
8.129369039444505e-05
8.68051270313566e-05
9.507228198672396e-05
9.507228198672396e-05
8.404940871290084e-05
7.30265354390777e-05
7.02708171206219e-05
7.02708171206219e-05
7.30265354390777e-05
6.200366216525454e-05
5.373650720988717e-05
5.373650720988717e-05
5.098078889143139e-05
4.546935225451981e-05
2.6179324025329308e-05
6.8892957961388014e-06
-1.377859159228559e-06
-6.889295796140132e-06
-1.7912169069963278e-05
-3.995791561760957e-05
-6.200366216525588e-05
-6.751509880216745e-05
-6.200366216525588e-05
-5.6492225528344285e-05
-6.200366216525588e-05
-7.57822537575348e-05
-8.129369039444639e-05
-7.027081712062322e-05
-5.9247943846800084e-05
-5.9247943846800084e-05
-6.751509880216745e-05
-7.57822537575348e-05
-6.751509880216745e-05
-5.098078889143272e-05
-5.3736507209888505e-05
-7.027081712062322e-05
-4.8225070572976926e-05
0.00010609515526054714
0.0006351930724040583
0.0006599945372701603
0.0004615828183413437
0.00014467521171892812
-0.0002824611276417188
-0.0008005361715114068
-0.0011835810177767614
-0.0012690082856488905
-0.001158779552910659
-0.000976902143892577
-0.0008032918898298626
-0.0006351930724040594
-0.00047260569161516804
-0.00032379690241855563
-0.00020530101472495681
-0.0001198737468528274
-7.57822537575348e-05
-6.475938048371164e-05
-5.9247943846800084e-05
-4.2713633936065354e-05
-2.6179324025330647e-05
-2.342360570687485e-05
-3.169076066224221e-05
-3.995791561760957e-05
-2.8935042343786426e-05
-9.64501411459592e-06
-4.133577477684346e-06
-1.240073243305171e-05
-2.066788738841907e-05
-9.64501411459592e-06
1.2400732433050376e-05
2.3423605706873515e-05
2.066788738841773e-05
1.5156450751506162e-05
2.3423605706873515e-05
4.546935225451981e-05
6.475938048371032e-05
6.751509880216611e-05
7.02708171206219e-05
8.68051270313566e-05
0.00011436231021591448
0.00014743093003738393
0.00016396523994811866
0.00017498811322194178
0.00018601098649576498
0.00021632388799877858
0.00024112535286488067
0.0002493925078202481
0.00024388107118333642
0.00024112535286488067
0.00024663678950179223
0.0002549039444571596
0.0002493925078202481
0.00022459104295414594
0.00020530101472495543
0.0001970338597695881
0.0001970338597695881
0.00018876670481422076
0.00016672095826657444
0.00014467521171892812
0.00013365233844510492
0.00013365233844510492
0.00013089662012664922
0.00011160659189745871
9.23165636682682e-05
8.68051270313566e-05
8.68051270313566e-05
7.853797207598924e-05
6.475938048371032e-05
6.200366216525454e-05
6.751509880216611e-05
7.30265354390777e-05
7.02708171206219e-05
5.9247943846798756e-05
5.373650720988717e-05
6.200366216525454e-05
7.853797207598924e-05
8.404940871290084e-05
7.578225375753347e-05
6.751509880216611e-05
7.578225375753347e-05
8.956084534981241e-05
9.782800030517979e-05
9.23165636682682e-05
8.68051270313566e-05
8.68051270313566e-05
0.00010058371862363556
0.00010333943694209132
9.23165636682682e-05
7.853797207598924e-05
7.578225375753347e-05
9.23165636682682e-05
0.00011436231021591448
0.00010885087357900291
8.956084534981241e-05
8.129369039444505e-05
9.23165636682682e-05
0.00010333943694209132
0.00010058371862363556
8.129369039444505e-05
6.751509880216611e-05
6.751509880216611e-05
7.853797207598924e-05
8.68051270313566e-05
7.30265354390777e-05
5.649222552834297e-05
4.82250705729756e-05
5.098078889143139e-05
4.546935225451981e-05
2.3423605706873515e-05
-6.889295796140132e-06
-1.5156450751507488e-05
-1.5156450751507488e-05
-2.342360570687485e-05
-4.2713633936065354e-05
-5.9247943846800084e-05
-6.475938048371164e-05
-5.3736507209888505e-05
-4.5469352254521147e-05
-5.6492225528344285e-05
-7.57822537575348e-05
-8.404940871290214e-05
-7.302653543907902e-05
-6.200366216525588e-05
-6.200366216525588e-05
-7.302653543907902e-05
-7.57822537575348e-05
-6.475938048371164e-05
-6.475938048371164e-05
-7.302653543907902e-05
-5.3736507209888505e-05
0.00035410980392156795
0.0006517273823147929
0.0007950247348744939
0.000679284565499351
0.0003954455786984048
-5.098078889143272e-05
-0.0006241701991302363
-0.0010623294117647064
-0.0011890924544136726
-0.0011284666514076451
-0.0009824135805294888
-0.0008253376363775088
-0.0006710174105439848
-0.0005222086213473721
-0.0003844227054245829
-0.0002686825360494398
-0.00018049954985885472
-0.0001171180285343716
-7.57822537575348e-05
-5.3736507209888505e-05
-4.5469352254521147e-05
-2.8935042343786426e-05
-1.240073243305171e-05
-1.240073243305171e-05
-2.066788738841907e-05
-2.6179324025330647e-05
-1.7912169069963278e-05
-1.377859159228559e-06
4.133577477683014e-06
-9.64501411459592e-06
-1.5156450751507488e-05
-9.64501411459592e-06
4.133577477683014e-06
1.7912169069961946e-05
1.7912169069961946e-05
1.7912169069961946e-05
2.8935042343785094e-05
5.373650720988717e-05
7.853797207598924e-05
8.68051270313566e-05
8.68051270313566e-05
0.00010609515526054714
0.00013365233844510492
0.00016672095826657444
0.0001832552681773092
0.00018601098649576498
0.00019978957808804387
0.0002218353246356902
0.0002383696345464249
0.0002383696345464249
0.0002218353246356902
0.0002135681696803228
0.0002190796063172344
0.00022734676127260172
0.0002218353246356902
0.00019978957808804387
0.00018049954985885336
0.00017498811322194178
0.00017498811322194178
0.00016672095826657444
0.00014743093003738393
0.0001253851834897376
0.00010885087357900291
0.00010609515526054714
0.00010058371862363556
6.751509880216611e-05
6.200366216525454e-05
6.751509880216611e-05
7.02708171206219e-05
6.475938048371032e-05
5.649222552834297e-05
5.649222552834297e-05
6.751509880216611e-05
8.129369039444505e-05
8.404940871290084e-05
8.129369039444505e-05
8.404940871290084e-05
9.23165636682682e-05
0.00010609515526054714
0.00011160659189745871
0.00010333943694209132
0.00010333943694209132
0.00011436231021591448
0.0001253851834897376
0.00013365233844510492
0.00011987374685282605
0.00010609515526054714
0.00010333943694209132
0.00011160659189745871
0.00011711802853437029
0.00011436231021591448
0.00010885087357900291
0.00011160659189745871
0.00011711802853437029
0.00011987374685282605
0.00011436231021591448
9.782800030517979e-05
8.68051270313566e-05
8.956084534981241e-05
9.23165636682682e-05
8.129369039444505e-05
6.475938048371032e-05
6.200366216525454e-05
6.475938048371032e-05
6.475938048371032e-05
5.098078889143139e-05
2.6179324025329308e-05
6.8892957961388014e-06
6.8892957961388014e-06
9.64501411459459e-06
-4.133577477684346e-06
-3.4446478980697995e-05
-6.200366216525588e-05
-7.302653543907902e-05
-6.200366216525588e-05
-5.9247943846800084e-05
-7.027081712062322e-05
-8.680512703135793e-05
-8.680512703135793e-05
-7.302653543907902e-05
-6.475938048371164e-05
-7.027081712062322e-05
-8.129369039444639e-05
-8.404940871290214e-05
-8.129369039444639e-05
-7.027081712062322e-05
-7.027081712062322e-05
-8.404940871290214e-05
-0.00010058371862363688
-5.9247943846800084e-05
0.00038993414206149314
0.0006241701991302349
0.0006517273823147929
0.0004615828183413437
0.00015018664835583973
-0.0002824611276417188
-0.0008005361715114068
-0.0011725581445029378
-0.0012442068207827886
-0.0011339780880445568
-0.0009658792706187539
-0.0008225819180590531
-0.0006710174105439848
-0.0005029185931181816
-0.0003403312123292903
-0.00023010247959105888
-0.00016396523994811996
-0.0001226294651712832
-9.231656366826955e-05
-6.475938048371164e-05
-4.8225070572976926e-05
-4.2713633936065354e-05
-4.5469352254521147e-05
-4.8225070572976926e-05
-3.720219729915378e-05
-2.342360570687485e-05
-2.066788738841907e-05
-2.6179324025330647e-05
-3.169076066224221e-05
-2.342360570687485e-05
-6.889295796140132e-06
4.133577477683014e-06
1.3778591592272275e-06
-1.377859159228559e-06
1.2400732433050376e-05
3.720219729915245e-05
5.098078889143139e-05
5.373650720988717e-05
5.649222552834297e-05
7.30265354390777e-05
0.00010333943694209132
0.0001253851834897376
0.00013916377508201656
0.00014743093003738393
0.00016396523994811866
0.00019427814145113231
0.0002190796063172344
0.00023010247959105753
0.00022734676127260172
0.00022459104295414594
0.00023285819790951333
0.0002383696345464249
0.00023285819790951333
0.00020805673304341124
0.00018601098649576498
0.00017498811322194178
0.0001694766765850302
0.00015294236667429551
0.00012814090180819342
0.00010885087357900291
0.00010333943694209132
0.00010609515526054714
9.782800030517979e-05
7.30265354390777e-05
4.82250705729756e-05
4.546935225451981e-05
4.271363393606403e-05
2.8935042343785094e-05
9.64501411459459e-06
6.8892957961388014e-06
1.2400732433050376e-05
2.066788738841773e-05
2.066788738841773e-05
9.64501411459459e-06
9.64501411459459e-06
2.3423605706873515e-05
3.9957915617608246e-05
4.546935225451981e-05
3.9957915617608246e-05
3.9957915617608246e-05
5.373650720988717e-05
7.02708171206219e-05
8.129369039444505e-05
7.853797207598924e-05
7.30265354390777e-05
8.404940871290084e-05
0.00010058371862363556
0.00010885087357900291
9.23165636682682e-05
8.129369039444505e-05
8.68051270313566e-05
0.00010885087357900291
0.0001253851834897376
0.00011711802853437029
9.782800030517979e-05
9.782800030517979e-05
0.00011160659189745871
0.00011711802853437029
0.00010609515526054714
8.404940871290084e-05
6.751509880216611e-05
7.30265354390777e-05
8.68051270313566e-05
8.129369039444505e-05
5.649222552834297e-05
3.444647898069667e-05
3.169076066224089e-05
3.169076066224089e-05
2.3423605706873515e-05
1.3778591592272275e-06
-2.6179324025330647e-05
-3.995791561760957e-05
-4.5469352254521147e-05
-4.8225070572976926e-05
-6.475938048371164e-05
-8.129369039444639e-05
-8.129369039444639e-05
-7.302653543907902e-05
-6.751509880216745e-05
-7.57822537575348e-05
-8.956084534981374e-05
-8.956084534981374e-05
-8.129369039444639e-05
-7.57822537575348e-05
-8.129369039444639e-05
-9.507228198672531e-05
-0.00010058371862363688
-9.507228198672531e-05
-9.507228198672531e-05
-6.475938048371164e-05
7.853797207598924e-05
0.0006572388189517045
0.0007040860303654528
0.0005277200579842825
0.00021632388799877858
-0.00022734676127260308
-0.0007481775234607469
-0.001147756679636836
-0.001274519722285802
-0.0011973596093690403
-0.0010375279468986046
-0.0008694291294728014
-0.0006820402838178078
-0.0004946514381628143
-0.0003485983672846577
-0.0002521482261387052
-0.00017223239490348733
-0.00010609515526054846
-7.027081712062322e-05
-6.200366216525588e-05
-6.751509880216745e-05
-6.475938048371164e-05
-4.8225070572976926e-05
-3.169076066224221e-05
-3.169076066224221e-05
-4.2713633936065354e-05
-4.5469352254521147e-05
-3.4446478980697995e-05
-2.066788738841907e-05
-1.7912169069963278e-05
-2.066788738841907e-05
-2.6179324025330647e-05
-1.240073243305171e-05
6.8892957961388014e-06
2.066788738841773e-05
1.7912169069961946e-05
2.066788738841773e-05
3.720219729915245e-05
6.475938048371032e-05
8.68051270313566e-05
9.507228198672396e-05
0.00010333943694209132
0.00012262946517128183
0.00015845380331120705
0.00018601098649576498
0.0001970338597695881
0.00019978957808804387
0.00021632388799877858
0.00023561391622796914
0.00025214822613870384
0.0002493925078202481
0.00023010247959105753
0.0002135681696803228
0.00020530101472495543
0.00020254529640649968
0.0001832552681773092
0.0001556980849927513
0.00013365233844510492
0.00012262946517128183
0.00011987374685282605
0.00010885087357900291
8.68051270313566e-05
7.02708171206219e-05
6.475938048371032e-05
7.02708171206219e-05
6.751509880216611e-05
3.9957915617608246e-05
3.720219729915245e-05
4.271363393606403e-05
4.271363393606403e-05
3.169076066224089e-05
1.2400732433050376e-05
9.64501411459459e-06
2.066788738841773e-05
2.6179324025329308e-05
2.066788738841773e-05
4.133577477683014e-06
1.3778591592272275e-06
1.2400732433050376e-05
2.8935042343785094e-05
2.8935042343785094e-05
2.3423605706873515e-05
2.066788738841773e-05
3.444647898069667e-05
5.373650720988717e-05
6.475938048371032e-05
5.373650720988717e-05
4.271363393606403e-05
5.373650720988717e-05
7.02708171206219e-05
7.578225375753347e-05
7.853797207598924e-05
8.129369039444505e-05
8.404940871290084e-05
9.507228198672396e-05
9.782800030517979e-05
9.507228198672396e-05
8.68051270313566e-05
8.404940871290084e-05
8.404940871290084e-05
8.129369039444505e-05
7.30265354390777e-05
6.475938048371032e-05
5.373650720988717e-05
5.373650720988717e-05
5.098078889143139e-05
3.720219729915245e-05
1.2400732433050376e-05
-4.133577477684346e-06
-4.133577477684346e-06
-1.240073243305171e-05
-2.8935042343786426e-05
-5.6492225528344285e-05
-7.57822537575348e-05
-7.57822537575348e-05
-6.475938048371164e-05
-6.475938048371164e-05
-7.85379720759906e-05
-9.231656366826955e-05
-8.956084534981374e-05
-7.85379720759906e-05
-7.027081712062322e-05
-7.85379720759906e-05
-9.231656366826955e-05
-9.231656366826955e-05
-8.129369039444639e-05
-7.57822537575348e-05
-8.404940871290214e-05
-0.00010333943694209268
-5.6492225528344285e-05
0.00015845380331120705
0.0007233760585946433
0.0006599945372701603
0.00042851419851987416
9.782800030517979e-05
-0.00036788839551384826
-0.0008914748760204477
-0.0012497182574196996
-0.0013075883421072713
-0.001164290989547571
-0.0009686349889372096
-0.0007840018616006722
-0.0006048801709010458
-0.00043953707179369863
-0.00030175115587090934
-0.00019703385976958942
-0.00012538518348973897
-9.507228198672531e-05
-8.404940871290214e-05
-6.751509880216745e-05
-5.3736507209888505e-05
-3.995791561760957e-05
-4.2713633936065354e-05
-5.3736507209888505e-05
-5.3736507209888505e-05
-3.995791561760957e-05
-2.6179324025330647e-05
-2.6179324025330647e-05
-3.720219729915378e-05
-3.720219729915378e-05
-2.342360570687485e-05
-6.889295796140132e-06
-4.133577477684346e-06
-6.889295796140132e-06
-4.133577477684346e-06
9.64501411459459e-06
3.444647898069667e-05
5.098078889143139e-05
5.373650720988717e-05
5.9247943846798756e-05
8.404940871290084e-05
0.00011987374685282605
0.00014743093003738393
0.00016120952162966288
0.0001694766765850302
0.00019152242313267648
0.00022459104295414594
0.00024388107118333642
0.00024112535286488067
0.00023285819790951333
0.00023010247959105753
0.00023285819790951333
0.00023010247959105753
0.00020805673304341124
0.0001832552681773092
0.00016120952162966288
0.0001556980849927513
0.00015018664835583973
0.00013640805676356078
0.00011160659189745871
9.23165636682682e-05
9.507228198672396e-05
0.00010058371862363556
9.23165636682682e-05
7.30265354390777e-05
5.649222552834297e-05
6.200366216525454e-05
6.475938048371032e-05
4.82250705729756e-05
2.8935042343785094e-05
2.6179324025329308e-05
3.169076066224089e-05
3.169076066224089e-05
2.066788738841773e-05
4.133577477683014e-06
-1.377859159228559e-06
9.64501411459459e-06
2.066788738841773e-05
1.7912169069961946e-05
9.64501411459459e-06
9.64501411459459e-06
2.066788738841773e-05
3.444647898069667e-05
3.720219729915245e-05
3.169076066224089e-05
3.169076066224089e-05
3.9957915617608246e-05
5.098078889143139e-05
5.373650720988717e-05
4.82250705729756e-05
3.9957915617608246e-05
5.098078889143139e-05
8.129369039444505e-05
9.507228198672396e-05
8.129369039444505e-05
6.751509880216611e-05
7.02708171206219e-05
8.956084534981241e-05
9.782800030517979e-05
8.404940871290084e-05
6.200366216525454e-05
5.649222552834297e-05
6.751509880216611e-05
7.853797207598924e-05
6.751509880216611e-05
4.271363393606403e-05
2.6179324025329308e-05
2.6179324025329308e-05
2.3423605706873515e-05
6.8892957961388014e-06
-2.066788738841907e-05
-4.5469352254521147e-05
-5.3736507209888505e-05
-5.9247943846800084e-05
-6.751509880216745e-05
-8.404940871290214e-05
-9.507228198672531e-05
-9.231656366826955e-05
-7.85379720759906e-05
-7.85379720759906e-05
-9.231656366826955e-05
-0.00010609515526054846
-9.78280003051811e-05
-8.404940871290214e-05
-8.129369039444639e-05
-8.956084534981374e-05
-0.00010058371862363688
-0.00010333943694209268
-8.956084534981374e-05
-8.404940871290214e-05
-2.066788738841907e-05
0.00017498811322194178
0.0006462159456778814
0.0005966130159456772
0.0003485983672846564
-3.169076066224221e-05
-0.0005359872129396513
-0.0010320165102616929
-0.0012800311589227138
-0.0012690082856488905
-0.0011257109330891897
-0.0009658792706187539
-0.0007867575799191276
-0.0005883458609903113
-0.00041197988860914084
-0.00028797256427863044
-0.0002108124513618684
-0.00014191949340047367
-8.956084534981374e-05
-6.751509880216745e-05
-6.475938048371164e-05
-7.027081712062322e-05
-6.751509880216745e-05
-5.098078889143272e-05
-3.720219729915378e-05
-3.720219729915378e-05
-4.8225070572976926e-05
-4.8225070572976926e-05
-3.169076066224221e-05
-9.64501411459592e-06
-9.64501411459592e-06
-2.342360570687485e-05
-2.6179324025330647e-05
-9.64501411459592e-06
9.64501411459459e-06
1.5156450751506162e-05
1.2400732433050376e-05
1.7912169069961946e-05
3.720219729915245e-05
6.200366216525454e-05
8.129369039444505e-05
9.23165636682682e-05
0.00010333943694209132
0.0001253851834897376
0.00016120952162966288
0.00018601098649576498
0.0001970338597695881
0.00020530101472495543
0.0002190796063172344
0.0002383696345464249
0.00024663678950179223
0.00024112535286488067
0.00022459104295414594
0.00021632388799877858
0.0002190796063172344
0.0002190796063172344
0.00020254529640649968
0.00017774383154039756
0.00016120952162966288
0.0001556980849927513
0.00015018664835583973
0.00014191949340047234
0.00011987374685282605
0.00010333943694209132
9.507228198672396e-05
9.507228198672396e-05
8.68051270313566e-05
5.373650720988717e-05
5.098078889143139e-05
5.9247943846798756e-05
6.200366216525454e-05
5.098078889143139e-05
3.720219729915245e-05
4.271363393606403e-05
5.373650720988717e-05
6.200366216525454e-05
5.649222552834297e-05
4.546935225451981e-05
4.546935225451981e-05
5.649222552834297e-05
7.02708171206219e-05
6.475938048371032e-05
5.373650720988717e-05
5.098078889143139e-05
6.200366216525454e-05
7.853797207598924e-05
7.853797207598924e-05
6.475938048371032e-05
6.200366216525454e-05
6.751509880216611e-05
7.578225375753347e-05
7.578225375753347e-05
6.200366216525454e-05
5.9247943846798756e-05
7.30265354390777e-05
8.956084534981241e-05
8.956084534981241e-05
7.578225375753347e-05
6.751509880216611e-05
7.02708171206219e-05
8.129369039444505e-05
8.129369039444505e-05
6.475938048371032e-05
4.546935225451981e-05
4.82250705729756e-05
5.9247943846798756e-05
5.9247943846798756e-05
4.546935225451981e-05
2.066788738841773e-05
1.3778591592272275e-06
1.3778591592272275e-06
4.133577477683014e-06
-6.889295796140132e-06
-3.169076066224221e-05
-5.6492225528344285e-05
-6.200366216525588e-05
-5.9247943846800084e-05
-6.200366216525588e-05
-7.302653543907902e-05
-8.404940871290214e-05
-7.85379720759906e-05
-6.475938048371164e-05
-5.9247943846800084e-05
-7.57822537575348e-05
-8.956084534981374e-05
-9.231656366826955e-05
-7.85379720759906e-05
-7.302653543907902e-05
-7.57822537575348e-05
-8.129369039444639e-05
-8.956084534981374e-05
-6.751509880216745e-05
0.00023561391622796914
0.0004918957198443572
0.0006682616922255276
0.0006269259174486908
0.00038993414206149314
1.2400732433050376e-05
-0.0005111857480735491
-0.0010072150453955906
-0.001222161074235142
-0.0011808252994583053
-0.0010375279468986046
-0.0008887191577019918
-0.0007399103685053794
-0.0005663001144426648
-0.0003982012970168618
-0.00027694969100480727
-0.00021632388799877996
-0.00016947667658503157
-0.00012538518348973897
-8.956084534981374e-05
-6.751509880216745e-05
-6.475938048371164e-05
-6.751509880216745e-05
-5.9247943846800084e-05
-3.995791561760957e-05
-2.342360570687485e-05
-2.066788738841907e-05
-2.342360570687485e-05
-2.6179324025330647e-05
-1.5156450751507488e-05
4.133577477683014e-06
6.8892957961388014e-06
1.3778591592272275e-06
1.3778591592272275e-06
1.5156450751506162e-05
3.444647898069667e-05
4.271363393606403e-05
3.9957915617608246e-05
4.546935225451981e-05
6.751509880216611e-05
8.956084534981241e-05
0.00010333943694209132
0.00010609515526054714
0.00011711802853437029
0.00014191949340047234
0.00017498811322194178
0.0001970338597695881
0.00019978957808804387
0.0001970338597695881
0.00020530101472495543
0.0002218353246356902
0.00023561391622796914
0.00022734676127260172
0.00020805673304341124
0.00019978957808804387
0.00020530101472495543
0.00020530101472495543
0.00018876670481422076
0.00016672095826657444
0.00015294236667429551
0.00014743093003738393
0.00014191949340047234
0.00012814090180819342
0.00010885087357900291
9.23165636682682e-05
8.956084534981241e-05
7.853797207598924e-05
5.9247943846798756e-05
4.546935225451981e-05
5.098078889143139e-05
6.200366216525454e-05
6.475938048371032e-05
5.373650720988717e-05
4.271363393606403e-05
4.82250705729756e-05
6.200366216525454e-05
7.578225375753347e-05
7.02708171206219e-05
6.475938048371032e-05
6.751509880216611e-05
8.68051270313566e-05
9.782800030517979e-05
9.507228198672396e-05
8.956084534981241e-05
9.23165636682682e-05
0.00010333943694209132
0.00011436231021591448
0.00011160659189745871
9.507228198672396e-05
8.404940871290084e-05
9.782800030517979e-05
0.0001253851834897376
0.00013089662012664922
0.00010885087357900291
8.956084534981241e-05
9.507228198672396e-05
0.00011160659189745871
0.00011436231021591448
9.23165636682682e-05
7.578225375753347e-05
7.30265354390777e-05
8.956084534981241e-05
9.23165636682682e-05
7.30265354390777e-05
4.82250705729756e-05
3.444647898069667e-05
3.169076066224089e-05
3.169076066224089e-05
1.7912169069961946e-05
-4.133577477684346e-06
-2.342360570687485e-05
-3.169076066224221e-05
-3.720219729915378e-05
-4.8225070572976926e-05
-6.751509880216745e-05
-8.129369039444639e-05
-8.129369039444639e-05
-7.57822537575348e-05
-8.129369039444639e-05
-9.507228198672531e-05
-0.00010333943694209268
-9.231656366826955e-05
-7.85379720759906e-05
-8.129369039444639e-05
-9.231656366826955e-05
-0.00010333943694209268
-9.231656366826955e-05
-7.85379720759906e-05
-7.85379720759906e-05
-4.5469352254521147e-05
0.00036788839551384685
0.0005938572976272215
0.0006269259174486908
0.00042024704356450677
7.578225375753347e-05
-0.00037339983215075977
-0.0008611619745174342
-0.0011698024261844818
-0.0012194053559166863
-0.0011284666514076451
-0.000979657862211033
-0.0008170704814221414
-0.0006462159456778825
-0.00048638428320744705
-0.00035410980392156926
-0.00025765966277561676
-0.00018049954985885472
-0.0001198737468528274
-8.956084534981374e-05
-8.404940871290214e-05
-8.404940871290214e-05
-6.751509880216745e-05
-5.098078889143272e-05
-4.2713633936065354e-05
-5.3736507209888505e-05
-5.9247943846800084e-05
-4.8225070572976926e-05
-3.169076066224221e-05
-2.8935042343786426e-05
-4.5469352254521147e-05
-5.6492225528344285e-05
-4.5469352254521147e-05
-2.066788738841907e-05
-9.64501411459592e-06
-1.7912169069963278e-05
-1.5156450751507488e-05
4.133577477683014e-06
3.720219729915245e-05
6.200366216525454e-05
6.475938048371032e-05
6.751509880216611e-05
8.129369039444505e-05
0.00011436231021591448
0.00014467521171892812
0.00015018664835583973
0.00014467521171892812
0.0001556980849927513
0.0001832552681773092
0.00020805673304341124
0.00020530101472495543
0.0001832552681773092
0.00016672095826657444
0.0001694766765850302
0.00018049954985885336
0.00016396523994811866
0.00012262946517128183
9.507228198672396e-05
9.23165636682682e-05
0.00010058371862363556
8.956084534981241e-05
6.200366216525454e-05
3.9957915617608246e-05
3.720219729915245e-05
4.82250705729756e-05
4.82250705729756e-05
1.7912169069961946e-05
-3.720219729915378e-05
-2.6179324025330647e-05
-1.240073243305171e-05
-2.6179324025330647e-05
-3.995791561760957e-05
-3.995791561760957e-05
-1.7912169069963278e-05
1.3778591592272275e-06
-4.133577477684346e-06
-2.6179324025330647e-05
-3.4446478980697995e-05
-9.64501411459592e-06
2.3423605706873515e-05
3.169076066224089e-05
1.5156450751506162e-05
6.8892957961388014e-06
2.8935042343785094e-05
5.649222552834297e-05
6.200366216525454e-05
4.546935225451981e-05
3.444647898069667e-05
4.546935225451981e-05
7.02708171206219e-05
7.853797207598924e-05
6.751509880216611e-05
5.373650720988717e-05
5.373650720988717e-05
6.475938048371032e-05
7.30265354390777e-05
7.853797207598924e-05
7.30265354390777e-05
6.475938048371032e-05
6.200366216525454e-05
5.9247943846798756e-05
4.546935225451981e-05
3.444647898069667e-05
2.3423605706873515e-05
2.6179324025329308e-05
2.6179324025329308e-05
1.5156450751506162e-05
-9.64501411459592e-06
-3.169076066224221e-05
-3.995791561760957e-05
-4.5469352254521147e-05
-5.9247943846800084e-05
-8.956084534981374e-05
-0.0001198737468528274
-0.00012538518348973897
-0.0001171180285343716
-0.00010885087357900426
-0.00010885087357900426
-0.0001226294651712832
-0.00012814090180819475
-0.0001226294651712832
-0.0001171180285343716
-0.0001226294651712832
-0.00014191949340047367
-0.00015294236667429682
-0.00014467521171892948
-0.0001336523384451063
-0.00014467521171892948
-0.00017223239490348733
-0.00017223239490348733
-7.57822537575348e-05
0.00017774383154039756
0.0006710174105439835
0.0005800787060349425
0.00033206405737392166
-1.7912169069963278e-05
-0.000500162874799726
-0.0010099707637140464
-0.0012827868772411696
-0.0012827868772411696
-0.0011367338063630126
-0.0009741464255741213
-0.0008225819180590531
-0.0006572388189517057
-0.0004946514381628143
-0.0003596212405584808
-0.0002631710994125282
-0.00019427814145113364
-0.00016396523994811996
-0.00015294236667429682
-0.0001336523384451063
-0.0001171180285343716
-0.00010885087357900426
-0.00010333943694209268
-9.78280003051811e-05
-8.956084534981374e-05
-7.57822537575348e-05
-7.027081712062322e-05
-8.404940871290214e-05
-9.231656366826955e-05
-9.231656366826955e-05
-7.302653543907902e-05
-5.9247943846800084e-05
-5.9247943846800084e-05
-6.475938048371164e-05
-5.6492225528344285e-05
-3.169076066224221e-05
-9.64501411459592e-06
1.3778591592272275e-06
6.8892957961388014e-06
2.066788738841773e-05
5.373650720988717e-05
8.129369039444505e-05
0.00010058371862363556
0.00010333943694209132
0.00011436231021591448
0.00013916377508201656
0.00016396523994811866
0.000172232394903486
0.00016120952162966288
0.00015018664835583973
0.00015018664835583973
0.0001556980849927513
0.00014743093003738393
0.00011711802853437029
8.68051270313566e-05
7.578225375753347e-05
8.68051270313566e-05
9.507228198672396e-05
8.129369039444505e-05
5.649222552834297e-05
4.271363393606403e-05
4.546935225451981e-05
4.546935225451981e-05
2.8935042343785094e-05
1.2400732433050376e-05
4.133577477683014e-06
6.8892957961388014e-06
-1.240073243305171e-05
-3.4446478980697995e-05
-3.4446478980697995e-05
-1.7912169069963278e-05
-4.133577477684346e-06
-1.5156450751507488e-05
-3.4446478980697995e-05
-4.8225070572976926e-05
-3.995791561760957e-05
-1.7912169069963278e-05
-1.240073243305171e-05
-2.342360570687485e-05
-2.6179324025330647e-05
-1.5156450751507488e-05
1.2400732433050376e-05
2.8935042343785094e-05
2.6179324025329308e-05
1.7912169069961946e-05
2.066788738841773e-05
3.9957915617608246e-05
5.9247943846798756e-05
6.751509880216611e-05
5.9247943846798756e-05
5.9247943846798756e-05
7.02708171206219e-05
7.853797207598924e-05
7.02708171206219e-05
5.098078889143139e-05
3.720219729915245e-05
3.9957915617608246e-05
5.373650720988717e-05
6.475938048371032e-05
5.373650720988717e-05
3.169076066224089e-05
2.8935042343785094e-05
3.169076066224089e-05
2.066788738841773e-05
-4.133577477684346e-06
-1.7912169069963278e-05
-1.7912169069963278e-05
-1.5156450751507488e-05
-2.8935042343786426e-05
-6.200366216525588e-05
-9.231656366826955e-05
-9.78280003051811e-05
-8.680512703135793e-05
-7.85379720759906e-05
-9.231656366826955e-05
-0.00011436231021591582
-0.0001198737468528274
-0.00010885087357900426
-9.507228198672531e-05
-9.507228198672531e-05
-0.00011160659189746003
-0.0001171180285343716
-0.00010885087357900426
-9.78280003051811e-05
-0.00010333943694209268
-0.00012538518348973897
-7.57822537575348e-05
0.00013916377508201656
0.0004863842832074457
0.0007095974670023644
0.0006462159456778814
7.578225375753347e-05
-0.00037891126878767127
-0.0008914748760204477
-0.0012442068207827886
-0.001310344060425727
-0.0011753138628213936
-0.000979657862211033
-0.0007922690165560394
-0.000615903044174869
-0.00045882710002288904
-0.0003293083390554673
-0.00023010247959105888
-0.00015569808499275262
-0.0001198737468528274
-0.0001171180285343716
-0.00010885087357900426
-8.404940871290214e-05
-6.475938048371164e-05
-6.475938048371164e-05
-7.85379720759906e-05
-8.404940871290214e-05
-7.027081712062322e-05
-5.098078889143272e-05
-4.8225070572976926e-05
-6.200366216525588e-05
-6.751509880216745e-05
-5.6492225528344285e-05
-3.4446478980697995e-05
-2.342360570687485e-05
-2.6179324025330647e-05
-2.8935042343786426e-05
-1.240073243305171e-05
1.7912169069961946e-05
4.271363393606403e-05
4.546935225451981e-05
5.098078889143139e-05
7.02708171206219e-05
0.00010609515526054714
0.00013916377508201656
0.00015294236667429551
0.00015845380331120705
0.000172232394903486
0.00020254529640649968
0.00022734676127260172
0.00022734676127260172
0.000210812451361867
0.0001970338597695881
0.00019978957808804387
0.00019978957808804387
0.00018601098649576498
0.00015845380331120705
0.00012814090180819342
0.00011711802853437029
0.00011711802853437029
0.00010885087357900291
8.68051270313566e-05
6.751509880216611e-05
5.9247943846798756e-05
6.475938048371032e-05
6.475938048371032e-05
5.098078889143139e-05
3.169076066224089e-05
2.8935042343785094e-05
3.444647898069667e-05
3.9957915617608246e-05
2.8935042343785094e-05
-4.133577477684346e-06
4.133577477683014e-06
1.2400732433050376e-05
6.8892957961388014e-06
-9.64501411459592e-06
-1.7912169069963278e-05
-1.377859159228559e-06
2.066788738841773e-05
2.066788738841773e-05
6.8892957961388014e-06
-4.133577477684346e-06
4.133577477683014e-06
2.3423605706873515e-05
3.169076066224089e-05
2.6179324025329308e-05
2.3423605706873515e-05
4.546935225451981e-05
7.853797207598924e-05
9.507228198672396e-05
8.68051270313566e-05
7.30265354390777e-05
8.129369039444505e-05
0.00010333943694209132
0.00011436231021591448
0.00010058371862363556
7.02708171206219e-05
5.9247943846798756e-05
7.853797207598924e-05
9.782800030517979e-05
8.68051270313566e-05
5.373650720988717e-05
2.8935042343785094e-05
3.169076066224089e-05
3.9957915617608246e-05
2.6179324025329308e-05
-9.64501411459592e-06
-3.720219729915378e-05
-4.2713633936065354e-05
-3.720219729915378e-05
-4.2713633936065354e-05
-6.751509880216745e-05
-8.956084534981374e-05
-8.129369039444639e-05
-5.6492225528344285e-05
-5.098078889143272e-05
-7.302653543907902e-05
-9.231656366826955e-05
-8.680512703135793e-05
-6.200366216525588e-05
-4.8225070572976926e-05
-6.475938048371164e-05
-8.680512703135793e-05
-8.956084534981374e-05
-7.57822537575348e-05
-5.098078889143272e-05
2.8935042343785094e-05
0.00024663678950179223
0.0005332314946211942
0.000687551720454718
0.0005966130159456772
0.0003182854657816428
-9.78280003051811e-05
-0.0006214144808117806
-0.0010816194399938968
-0.0012552296940566115
-0.0010595736934462504
-0.0009052534676127264
-0.0007151089036392773
-0.0005084300297550932
-0.0003293083390554673
-0.00023285819790951464
-0.00017498811322194308
-0.00011160659189746003
-5.9247943846800084e-05
-3.169076066224221e-05
-4.2713633936065354e-05
-6.200366216525588e-05
-5.6492225528344285e-05
-2.8935042343786426e-05
-1.377859159228559e-06
-6.889295796140132e-06
-2.8935042343786426e-05
-2.8935042343786426e-05
-6.889295796140132e-06
1.5156450751506162e-05
1.2400732433050376e-05
-4.133577477684346e-06
-9.64501411459592e-06
9.64501411459459e-06
3.720219729915245e-05
4.82250705729756e-05
3.444647898069667e-05
2.8935042343785094e-05
5.9247943846798756e-05
0.00010058371862363556
0.0001253851834897376
0.0001253851834897376
0.00012814090180819342
0.0001556980849927513
0.0001970338597695881
0.00023010247959105753
0.00023285819790951333
0.00022459104295414594
0.00023010247959105753
0.0002549039444571596
0.00027143825436789435
0.0002576596627756154
0.00022734676127260172
0.0002135681696803228
0.0002190796063172344
0.00022734676127260172
0.000210812451361867
0.000172232394903486
0.00015018664835583973
0.00015294236667429551
0.00016396523994811866
0.0001556980849927513
0.0001253851834897376
0.00010333943694209132
0.00010609515526054714
0.00012262946517128183
0.00011987374685282605
8.956084534981241e-05
6.200366216525454e-05
6.751509880216611e-05
8.956084534981241e-05
9.23165636682682e-05
7.02708171206219e-05
4.271363393606403e-05
4.271363393606403e-05
8.129369039444505e-05
6.751509880216611e-05
4.546935225451981e-05
4.546935225451981e-05
6.751509880216611e-05
8.956084534981241e-05
8.404940871290084e-05
5.9247943846798756e-05
5.373650720988717e-05
8.404940871290084e-05
0.00012814090180819342
0.00013916377508201656
0.00011436231021591448
0.00010058371862363556
0.00011987374685282605
0.00015294236667429551
0.00015845380331120705
0.00013640805676356078
0.00010609515526054714
0.00010609515526054714
0.00013640805676356078
0.00015294236667429551
0.0001253851834897376
9.23165636682682e-05
8.129369039444505e-05
9.782800030517979e-05
0.00010058371862363556
6.475938048371032e-05
2.066788738841773e-05
-1.377859159228559e-06
6.8892957961388014e-06
1.2400732433050376e-05
-1.240073243305171e-05
-5.3736507209888505e-05
-7.027081712062322e-05
-5.098078889143272e-05
-2.8935042343786426e-05
-4.2713633936065354e-05
-7.85379720759906e-05
-9.78280003051811e-05
-7.57822537575348e-05
-4.5469352254521147e-05
-4.5469352254521147e-05
-8.404940871290214e-05
-0.00010885087357900426
-9.231656366826955e-05
-5.9247943846800084e-05
-5.9247943846800084e-05
-7.85379720759906e-05
-1.377859159228559e-06
0.00025214822613870384
0.0005580329594872961
0.0006903074387731741
0.0005414986495765614
0.00021632388799877858
-0.00020530101472495681
-0.0007068417486839102
-0.0011229552147707339
-0.0012827868772411696
-0.0012359396658274211
-0.0010816194399938968
-0.0008914748760204477
-0.0006875517204547195
-0.0005139414663920051
-0.00039268986037995033
-0.00019427814145113364
-0.00010333943694209268
-7.57822537575348e-05
-9.231656366826955e-05
-0.00010333943694209268
-8.129369039444639e-05
-3.4446478980697995e-05
-1.5156450751507488e-05
-3.720219729915378e-05
-5.9247943846800084e-05
-4.2713633936065354e-05
1.3778591592272275e-06
2.3423605706873515e-05
-1.377859159228559e-06
-3.4446478980697995e-05
-2.8935042343786426e-05
1.2400732433050376e-05
4.271363393606403e-05
2.8935042343785094e-05
1.3778591592272275e-06
9.64501411459459e-06
5.373650720988717e-05
9.782800030517979e-05
0.00010058371862363556
7.578225375753347e-05
7.853797207598924e-05
0.00012814090180819342
0.00019152242313267648
0.000210812451361867
0.00019152242313267648
0.00018049954985885336
0.00021632388799877858
0.00026592681773098274
0.0002769496910048059
0.0002383696345464249
0.00020254529640649968
0.00020805673304341124
0.00024112535286488067
0.0002493925078202481
0.00020530101472495543
0.00015845380331120705
0.00015294236667429551
0.0001832552681773092
0.00020254529640649968
0.00016672095826657444
0.00010885087357900291
9.23165636682682e-05
0.00011987374685282605
0.00014467521171892812
0.00011987374685282605
6.751509880216611e-05
4.82250705729756e-05
7.853797207598924e-05
0.00010885087357900291
0.00010333943694209132
6.200366216525454e-05
3.169076066224089e-05
5.373650720988717e-05
8.956084534981241e-05
0.00010058371862363556
6.475938048371032e-05
3.169076066224089e-05
4.82250705729756e-05
8.956084534981241e-05
0.00010885087357900291
8.129369039444505e-05
5.649222552834297e-05
0.00010609515526054714
0.00014191949340047234
0.0001253851834897376
8.956084534981241e-05
9.23165636682682e-05
0.00013640805676356078
0.000172232394903486
0.00015845380331120705
0.00010885087357900291
9.23165636682682e-05
0.00012262946517128183
0.00015845380331120705
0.00015294236667429551
0.00010333943694209132
7.30265354390777e-05
9.507228198672396e-05
0.00012814090180819342
0.00011711802853437029
5.649222552834297e-05
9.64501411459459e-06
2.6179324025329308e-05
6.200366216525454e-05
5.649222552834297e-05
-9.64501411459592e-06
-6.475938048371164e-05
-5.6492225528344285e-05
-6.889295796140132e-06
9.64501411459459e-06
-3.995791561760957e-05
-0.00010058371862363688
-9.507228198672531e-05
-3.169076066224221e-05
6.8892957961388014e-06
-3.169076066224221e-05
-0.00010058371862363688
-0.00011436231021591582
-5.098078889143272e-05
-1.377859159228559e-06
-4.2713633936065354e-05
-0.00013089662012665053
-0.00010885087357900426
0.00012262946517128183
0.0004726056916151668
0.0007151089036392759
0.0006985745937285414
0.0004863842832074457
0.00021632388799877858
-0.00018601098649576628
-0.0007481775234607469
-0.0011835810177767614
-0.0012938097505149923
-0.0011422452429999243
-0.0009052534676127264
-0.0007371546501869236
-0.0006489716639963384
-0.00054976580453193
-0.00037891126878767127
-0.00019427814145113364
-8.680512703135793e-05
-9.231656366826955e-05
-0.00014467521171892948
-0.0001226294651712832
-2.8935042343786426e-05
3.444647898069667e-05
-9.507228198672531e-05
-0.00010333943694209268
-2.066788738841907e-05
5.098078889143139e-05
3.444647898069667e-05
-4.2713633936065354e-05
-7.302653543907902e-05
-1.5156450751507488e-05
5.9247943846798756e-05
5.9247943846798756e-05
-9.64501411459592e-06
-5.098078889143272e-05
-4.133577477684346e-06
8.404940871290084e-05
0.00011436231021591448
7.30265354390777e-05
3.720219729915245e-05
7.578225375753347e-05
0.00016120952162966288
0.0002135681696803228
0.00019427814145113231
0.00015845380331120705
0.00018049954985885336
0.00025214822613870384
0.0003072625925078196
0.0002852168459601733
0.00023010247959105753
0.0002135681696803228
0.0002576596627756154
0.00029623971923399637
0.00027143825436789435
0.00019978957808804387
0.00015845380331120705
0.0001832552681773092
0.00022459104295414594
0.000210812451361867
0.00015018664835583973
0.00010333943694209132
0.00011987374685282605
0.0001694766765850302
0.00017498811322194178
0.00011436231021591448
5.649222552834297e-05
6.200366216525454e-05
0.00011160659189745871
0.00013089662012664922
7.578225375753347e-05
9.64501411459459e-06
9.64501411459459e-06
7.30265354390777e-05
0.00010609515526054714
6.200366216525454e-05
-6.889295796140132e-06
-1.5156450751507488e-05
5.373650720988717e-05
0.00011436231021591448
8.956084534981241e-05
2.3423605706873515e-05
6.8892957961388014e-06
7.578225375753347e-05
0.00015845380331120705
0.00015845380331120705
9.23165636682682e-05
5.9247943846798756e-05
0.00011436231021591448
0.0001832552681773092
0.00011160659189745871
5.373650720988717e-05
7.30265354390777e-05
0.00014191949340047234
0.00016396523994811866
0.00010609515526054714
3.720219729915245e-05
3.169076066224089e-05
8.129369039444505e-05
0.00010333943694209132
4.271363393606403e-05
-4.2713633936065354e-05
-7.027081712062322e-05
-2.6179324025330647e-05
1.2400732433050376e-05
-2.066788738841907e-05
-9.507228198672531e-05
-0.0001198737468528274
-7.302653543907902e-05
-2.6179324025330647e-05
-5.9247943846800084e-05
-0.0001612095216296642
-0.00023285819790951464
-0.0002190796063172357
-0.00017223239490348733
-0.00016947667658503157
-0.00022459104295414727
-0.00027143825436789566
-0.00024388107118333775
-0.00018601098649576628
-0.00018049954985885472
-0.00019152242313267784
-6.475938048371164e-05
0.00024112535286488067
0.0005580329594872961
0.0006351930724040583
0.0004009570153353164
1.5156450751506162e-05
-0.00043402563515678713
-0.0008776962844281688
-0.0011312223697261012
-0.0011780695811398495
-0.0011091766231784547
-0.0009658792706187539
-0.0007619561150530257
-0.0005442543678950186
-0.00037891126878767127
-0.0002824611276417188
-0.00021356816968032413
-0.00010609515526054846
1.3778591592272275e-06
3.9957915617608246e-05
1.2400732433050376e-05
-9.64501411459592e-06
2.3423605706873515e-05
8.956084534981241e-05
0.00011711802853437029
8.129369039444505e-05
3.444647898069667e-05
3.720219729915245e-05
8.68051270313566e-05
0.00010885087357900291
6.751509880216611e-05
6.8892957961388014e-06
3.720219729915245e-05
7.578225375753347e-05
5.373650720988717e-05
-1.377859159228559e-06
-1.240073243305171e-05
3.9957915617608246e-05
0.00010058371862363556
0.00010609515526054714
6.475938048371032e-05
5.098078889143139e-05
0.00010885087357900291
0.00018876670481422076
0.000210812451361867
0.00016672095826657444
0.00013089662012664922
0.0001694766765850302
0.00024112535286488067
0.000263171099412527
0.00020805673304341124
0.00014191949340047234
0.00013916377508201656
0.00019427814145113231
0.0002190796063172344
0.00016120952162966288
8.68051270313566e-05
7.578225375753347e-05
0.00013089662012664922
0.0001694766765850302
0.00013089662012664922
5.098078889143139e-05
2.066788738841773e-05
6.751509880216611e-05
0.00011987374685282605
0.00010333943694209132
2.8935042343785094e-05
-2.066788738841907e-05
6.8892957961388014e-06
7.02708171206219e-05
7.30265354390777e-05
6.8892957961388014e-06
-4.8225070572976926e-05
-2.6179324025330647e-05
4.546935225451981e-05
7.578225375753347e-05
2.3423605706873515e-05
-3.995791561760957e-05
-2.6179324025330647e-05
5.098078889143139e-05
0.00010333943694209132
7.02708171206219e-05
-1.377859159228559e-06
-9.64501411459592e-06
7.02708171206219e-05
0.00014743093003738393
0.00013916377508201656
7.02708171206219e-05
4.271363393606403e-05
9.782800030517979e-05
0.000172232394903486
0.0001694766765850302
9.507228198672396e-05
4.271363393606403e-05
6.751509880216611e-05
0.00013365233844510492
0.00015294236667429551
8.68051270313566e-05
2.3423605706873515e-05
8.404940871290084e-05
0.00010058371862363556
3.169076066224089e-05
-5.098078889143272e-05
-6.475938048371164e-05
-1.240073243305171e-05
1.7912169069961946e-05
-3.4446478980697995e-05
-0.0001171180285343716
-0.0001364080567635621
-7.57822537575348e-05
-1.7912169069963278e-05
-3.995791561760957e-05
-0.0001171180285343716
-0.00014743093003738526
-9.78280003051811e-05
-3.169076066224221e-05
-3.4446478980697995e-05
-0.00010609515526054846
-0.00015569808499275262
-0.0001198737468528274
-5.3736507209888505e-05
-5.3736507209888505e-05
-0.00010333943694209268
-3.4446478980697995e-05
0.0002741939726863501
0.0006599945372701603
0.0007895132982375822
0.000599368734264133
0.00026041538109407124
-0.00014467521171892948
-0.00060212445258259
-0.0010237493553063252
-0.0012552296940566115
-0.001263496849011979
-0.0011064209048599993
-0.0008832077210650803
-0.0006599945372701616
-0.0004946514381628143
-0.0003954455786984061
-0.0003100183108262768
-0.00018876670481422206
-7.57822537575348e-05
-4.8225070572976926e-05
-8.680512703135793e-05
-0.0001198737468528274
-8.129369039444639e-05
-1.7912169069963278e-05
-4.133577477684346e-06
-5.098078889143272e-05
-8.956084534981374e-05
-6.751509880216745e-05
-4.133577477684346e-06
2.6179324025329308e-05
-1.240073243305171e-05
-5.9247943846800084e-05
-4.8225070572976926e-05
1.2400732433050376e-05
5.649222552834297e-05
3.444647898069667e-05
-9.64501411459592e-06
-4.133577477684346e-06
6.475938048371032e-05
0.00012262946517128183
7.853797207598924e-05
7.578225375753347e-05
0.00014191949340047234
0.0002135681696803228
0.00022734676127260172
0.00019152242313267648
0.000172232394903486
0.00021632388799877858
0.0002824611276417174
0.0002989954375524522
0.00024663678950179223
0.0001970338597695881
0.000210812451361867
0.00026041538109407124
0.00027143825436789435
0.000210812451361867
0.00014191949340047234
0.00013089662012664922
0.000172232394903486
0.00018876670481422076
0.00014191949340047234
7.02708171206219e-05
5.373650720988717e-05
9.782800030517979e-05
0.00013640805676356078
0.00011436231021591448
4.82250705729756e-05
2.066788738841773e-05
6.200366216525454e-05
0.00010885087357900291
9.507228198672396e-05
3.720219729915245e-05
-1.377859159228559e-06
2.3423605706873515e-05
7.30265354390777e-05
7.30265354390777e-05
1.5156450751506162e-05
-3.169076066224221e-05
-6.889295796140132e-06
5.649222552834297e-05
7.853797207598924e-05
3.169076066224089e-05
-2.342360570687485e-05
-1.7912169069963278e-05
4.546935225451981e-05
8.68051270313566e-05
6.751509880216611e-05
2.066788738841773e-05
2.3423605706873515e-05
8.129369039444505e-05
0.00013640805676356078
0.0001253851834897376
7.578225375753347e-05
5.9247943846798756e-05
0.00010058371862363556
0.00014467521171892812
0.00013365233844510492
8.129369039444505e-05
5.098078889143139e-05
7.578225375753347e-05
0.00012262946517128183
0.00011436231021591448
4.546935225451981e-05
-1.240073243305171e-05
-1.377859159228559e-06
4.271363393606403e-05
-2.342360570687485e-05
-9.231656366826955e-05
-8.956084534981374e-05
-3.169076066224221e-05
-4.133577477684346e-06
-4.8225070572976926e-05
-0.00011160659189746003
-0.0001198737468528274
-7.027081712062322e-05
-2.6179324025330647e-05
-5.6492225528344285e-05
-0.0001171180285343716
-0.0001391637750820179
-9.231656366826955e-05
-4.2713633936065354e-05
-6.200366216525588e-05
-0.0001364080567635621
-0.00014467521171892948
4.271363393606403e-05
0.0004009570153353164
0.0006985745937285414
0.000717864621957732
0.0005111857480735478
0.0002383696345464249
-0.0001336523384451063
-0.0006462159456778825
-0.001120199496452278
-0.00130207690547036
-0.0012056267643244074
-0.000979657862211033
-0.0007895132982375835
-0.0006627502555886173
-0.0005470100862134743
-0.0003899341420614945
-0.00022459104295414727
-0.00010885087357900426
-8.680512703135793e-05
-0.0001171180285343716
-0.00011436231021591582
-5.3736507209888505e-05
6.8892957961388014e-06
-6.889295796140132e-06
-6.475938048371164e-05
-8.956084534981374e-05
-4.2713633936065354e-05
2.066788738841773e-05
2.066788738841773e-05
-3.995791561760957e-05
-8.404940871290214e-05
-5.098078889143272e-05
1.7912169069961946e-05
3.9957915617608246e-05
-1.240073243305171e-05
-5.9247943846800084e-05
-3.720219729915378e-05
3.9957915617608246e-05
8.404940871290084e-05
5.373650720988717e-05
6.8892957961388014e-06
2.6179324025329308e-05
0.00010609515526054714
0.00016672095826657444
0.00015294236667429551
0.00011160659189745871
0.0001832552681773092
0.00024663678950179223
0.0002383696345464249
0.00017498811322194178
0.00013916377508201656
0.000172232394903486
0.00022459104295414594
0.000210812451361867
0.00012814090180819342
6.475938048371032e-05
8.129369039444505e-05
0.00013089662012664922
0.00013089662012664922
6.475938048371032e-05
4.133577477683014e-06
1.7912169069961946e-05
7.30265354390777e-05
8.956084534981241e-05
3.9957915617608246e-05
-2.066788738841907e-05
-2.342360570687485e-05
2.8935042343785094e-05
6.200366216525454e-05
2.6179324025329308e-05
-3.720219729915378e-05
-5.098078889143272e-05
4.133577477683014e-06
5.098078889143139e-05
2.8935042343785094e-05
-3.169076066224221e-05
-6.200366216525588e-05
-2.342360570687485e-05
3.9957915617608246e-05
4.271363393606403e-05
-1.240073243305171e-05
-4.2713633936065354e-05
4.133577477683014e-06
7.578225375753347e-05
9.782800030517979e-05
6.200366216525454e-05
3.444647898069667e-05
7.30265354390777e-05
0.00014743093003738393
0.00017774383154039756
0.00013089662012664922
7.578225375753347e-05
8.404940871290084e-05
0.00014467521171892812
0.00017498811322194178
0.00013089662012664922
5.9247943846798756e-05
5.373650720988717e-05
0.00011987374685282605
0.00016396523994811866
0.00012262946517128183
2.6179324025329308e-05
-1.5156450751507488e-05
3.720219729915245e-05
9.782800030517979e-05
6.475938048371032e-05
-3.995791561760957e-05
-0.00011160659189746003
-7.57822537575348e-05
4.133577477683014e-06
6.8892957961388014e-06
-7.85379720759906e-05
-0.0001198737468528274
-3.169076066224221e-05
-4.133577477684346e-06
-7.027081712062322e-05
-0.00014467521171892948
-0.00013089662012665053
-5.098078889143272e-05
-6.889295796140132e-06
-5.3736507209888505e-05
-0.0001391637750820179
-0.0001584538033112084
-2.8935042343786426e-05
0.00025214822613870384
0.0005663001144426635
0.000687551720454718
0.0005911015793087656
0.00041749132524605104
0.0001253851834897376
-0.00037891126878767127
-0.0009686349889372096
-0.0013186112153810948
-0.0012993211871519042
-0.0010816194399938968
-0.0008914748760204477
-0.0007647118333714817
-0.0006269259174486923
-0.0004312699168383313
-0.00024112535286488197
-0.00012814090180819475
-0.0001198737468528274
-0.00014467521171892948
-0.0001226294651712832
-4.5469352254521147e-05
6.8892957961388014e-06
-2.342360570687485e-05
-8.129369039444639e-05
-8.956084534981374e-05
-2.6179324025330647e-05
2.6179324025329308e-05
4.133577477683014e-06
-6.200366216525588e-05
-8.129369039444639e-05
-2.342360570687485e-05
3.9957915617608246e-05
3.720219729915245e-05
-2.342360570687485e-05
-5.6492225528344285e-05
-9.64501411459592e-06
6.475938048371032e-05
8.404940871290084e-05
3.720219729915245e-05
1.3778591592272275e-06
4.546935225451981e-05
0.00013916377508201656
0.00018601098649576498
0.00014743093003738393
0.00010058371862363556
0.00013365233844510492
0.00023010247959105753
0.0002879725642786291
0.0002493925078202481
0.000172232394903486
0.000172232394903486
0.0002549039444571596
0.0003182854657816428
0.00014743093003738393
8.68051270313566e-05
8.404940871290084e-05
7.853797207598924e-05
3.444647898069667e-05
-6.751509880216745e-05
-0.00010333943694209268
-4.133577477684346e-06
0.00014467521171892812
0.00021632388799877858
0.000210812451361867
0.00022734676127260172
0.0003293083390554659
0.0004478042267490647
0.00048362856488898997
0.00042300276188296266
0.0003568655222400236
0.0003568655222400236
0.0003982012970168605
0.0004009570153353164
0.0003293083390554659
0.00024388107118333642
0.0002218353246356902
0.0002576596627756154
0.00027970540932326175
0.00023561391622796914
0.00016672095826657444
0.00014743093003738393
0.00019152242313267648
0.00022459104295414594
0.0001970338597695881
0.00012814090180819342
0.00010333943694209132
0.00015845380331120705
0.0002218353246356902
0.0002218353246356902
0.00016120952162966288
0.00012262946517128183
0.00015845380331120705
0.00022734676127260172
0.00024112535286488067
0.0001832552681773092
0.00013089662012664922
0.00014743093003738393
0.000210812451361867
0.00023010247959105753
0.000172232394903486
0.00010333943694209132
9.782800030517979e-05
0.00013916377508201656
0.00015845380331120705
0.00011711802853437029
4.271363393606403e-05
1.2400732433050376e-05
4.546935225451981e-05
6.751509880216611e-05
3.720219729915245e-05
-2.8935042343786426e-05
-5.3736507209888505e-05
-1.5156450751507488e-05
2.8935042343785094e-05
1.2400732433050376e-05
-4.8225070572976926e-05
-8.129369039444639e-05
-4.8225070572976926e-05
9.64501411459459e-06
-4.8225070572976926e-05
-9.78280003051811e-05
-8.404940871290214e-05
-3.720219729915378e-05
-2.066788738841907e-05
4.133577477683014e-06
0.0001694766765850302
0.0004808728465705341
0.0007399103685053779
0.0007343989318684667
0.0004643385366597993
3.720219729915245e-05
-0.0004946514381628143
-0.000976902143892577
-0.001194603891050584
-0.0011918481727321284
-0.0010953980315861755
-0.0009576121156633864
-0.0007481775234607469
-0.0005249643396658282
-0.00036788839551384826
-0.00029348400091554195
-0.00024388107118333775
-0.00015569808499275262
-6.475938048371164e-05
-3.4446478980697995e-05
-7.027081712062322e-05
-0.00010333943694209268
-7.85379720759906e-05
-1.7912169069963278e-05
4.133577477683014e-06
-3.4446478980697995e-05
-7.85379720759906e-05
-7.027081712062322e-05
-2.066788738841907e-05
1.5156450751506162e-05
-9.64501411459592e-06
-5.098078889143272e-05
-5.098078889143272e-05
-1.377859159228559e-06
4.546935225451981e-05
3.720219729915245e-05
-6.889295796140132e-06
-1.5156450751507488e-05
3.444647898069667e-05
9.782800030517979e-05
0.00011160659189745871
8.129369039444505e-05
7.02708171206219e-05
0.00011711802853437029
0.00018876670481422076
0.0002135681696803228
0.0001832552681773092
0.0001556980849927513
0.00018601098649576498
0.00023561391622796914
0.0002549039444571596
0.00020805673304341124
0.0001556980849927513
0.0001556980849927513
0.0001970338597695881
0.0002135681696803228
0.00016672095826657444
0.00010333943694209132
0.00013089662012664922
0.00016672095826657444
0.00013089662012664922
5.9247943846798756e-05
3.169076066224089e-05
7.02708171206219e-05
0.00011160659189745871
9.507228198672396e-05
3.169076066224089e-05
-1.377859159228559e-06
2.8935042343785094e-05
7.578225375753347e-05
7.30265354390777e-05
1.5156450751506162e-05
-2.6179324025330647e-05
-1.240073243305171e-05
3.9957915617608246e-05
5.649222552834297e-05
1.2400732433050376e-05
-3.4446478980697995e-05
-2.066788738841907e-05
3.444647898069667e-05
6.200366216525454e-05
3.169076066224089e-05
-1.5156450751507488e-05
-1.240073243305171e-05
3.720219729915245e-05
7.853797207598924e-05
7.30265354390777e-05
3.9957915617608246e-05
3.169076066224089e-05
7.30265354390777e-05
0.00011987374685282605
0.00011987374685282605
7.578225375753347e-05
4.82250705729756e-05
7.02708171206219e-05
0.00010885087357900291
0.00011160659189745871
7.02708171206219e-05
3.444647898069667e-05
4.546935225451981e-05
7.853797207598924e-05
7.853797207598924e-05
2.8935042343785094e-05
-2.342360570687485e-05
-2.8935042343786426e-05
-1.377859159228559e-06
4.133577477683014e-06
-4.2713633936065354e-05
-0.00010058371862363688
-0.00011160659189746003
-7.302653543907902e-05
-4.2713633936065354e-05
-6.475938048371164e-05
-0.00011436231021591582
-0.0001364080567635621
-0.00010609515526054846
-7.027081712062322e-05
-7.57822537575348e-05
-0.0001198737468528274
-0.00014191949340047367
-0.00011436231021591582
-7.302653543907902e-05
-6.751509880216745e-05
-0.0001612095216296642
-7.027081712062322e-05
0.00019427814145113231
0.000508430029755092
0.0006682616922255276
0.0005828344243533982
0.000340331212329289
1.2400732433050376e-05
-0.0004781171282520797
-0.0010182379186694142
-0.0013186112153810948
-0.0013048326237888157
-0.001120199496452278
-0.0009245434958419172
-0.0007812461432822162
-0.0006489716639963384
-0.0004974071564812702
-0.0003348197756923787
-0.00021356816968032413
-0.00015569808499275262
-0.0001584538033112084
-0.0001584538033112084
-0.0001171180285343716
-6.200366216525588e-05
-5.6492225528344285e-05
-9.231656366826955e-05
-0.0001198737468528274
-9.507228198672531e-05
-4.2713633936065354e-05
-2.6179324025330647e-05
-5.3736507209888505e-05
-8.680512703135793e-05
-7.57822537575348e-05
-2.6179324025330647e-05
4.133577477683014e-06
-2.066788738841907e-05
-5.9247943846800084e-05
-5.098078889143272e-05
1.3778591592272275e-06
4.546935225451981e-05
4.546935225451981e-05
2.066788738841773e-05
2.6179324025329308e-05
8.129369039444505e-05
0.00013640805676356078
0.00015018664835583973
0.00013089662012664922
0.00012814090180819342
0.000172232394903486
0.00023010247959105753
0.00024388107118333642
0.00020254529640649968
0.0001694766765850302
0.00018049954985885336
0.0002218353246356902
0.00022734676127260172
0.00018049954985885336
0.00013089662012664922
0.0001253851834897376
0.0001556980849927513
0.0001694766765850302
0.00013365233844510492
8.129369039444505e-05
6.751509880216611e-05
9.782800030517979e-05
0.00011711802853437029
4.271363393606403e-05
2.8935042343785094e-05
5.649222552834297e-05
8.129369039444505e-05
5.9247943846798756e-05
6.8892957961388014e-06
-1.7912169069963278e-05
4.133577477683014e-06
4.271363393606403e-05
4.271363393606403e-05
-1.377859159228559e-06
-3.4446478980697995e-05
-1.7912169069963278e-05
2.6179324025329308e-05
3.720219729915245e-05
4.133577477683014e-06
-2.6179324025330647e-05
-9.64501411459592e-06
3.9957915617608246e-05
6.200366216525454e-05
3.9957915617608246e-05
1.3778591592272275e-06
1.3778591592272275e-06
5.098078889143139e-05
9.507228198672396e-05
8.68051270313566e-05
4.271363393606403e-05
3.169076066224089e-05
7.02708171206219e-05
0.00010609515526054714
8.956084534981241e-05
4.271363393606403e-05
2.3423605706873515e-05
4.82250705729756e-05
8.956084534981241e-05
9.23165636682682e-05
4.546935225451981e-05
6.8892957961388014e-06
9.64501411459459e-06
3.720219729915245e-05
3.444647898069667e-05
-1.7912169069963278e-05
-6.751509880216745e-05
-7.027081712062322e-05
-4.2713633936065354e-05
-3.995791561760957e-05
-7.85379720759906e-05
-0.0001226294651712832
-0.00012538518348973897
-8.956084534981374e-05
-7.027081712062322e-05
-0.00010058371862363688
-0.00014467521171892948
-0.0001584538033112084
-0.0001226294651712832
-9.231656366826955e-05
-0.00010609515526054846
-0.000150186648355841
-0.00016672095826657574
-0.0001364080567635621
-0.00010609515526054846
-0.00012814090180819475
-0.0001364080567635621
1.3778591592272275e-06
0.000315529747463187
0.0006985745937285414
0.0004891400015259016
0.00014743093003738393
-0.0002962397192339978
-0.0008198261997405972
-0.0012194053559166863
-0.0013571912718394756
-0.00130207690547036
-0.0011284666514076451
-0.0009300549324788287
-0.0007481775234607469
-0.0006048801709010458
-0.0004891400015259028
-0.0003844227054245829
-0.00027143825436789566
-0.00018325526817731047
-0.00017498811322194308
-0.00020530101472495681
-0.00021356816968032413
-0.0001777438315403989
-0.0001364080567635621
-0.0001364080567635621
-0.00016672095826657574
-0.00017498811322194308
-0.0001391637750820179
-9.231656366826955e-05
-8.129369039444639e-05
-0.00011436231021591582
-0.00013089662012665053
-0.00010058371862363688
-5.3736507209888505e-05
-4.2713633936065354e-05
-6.751509880216745e-05
-8.956084534981374e-05
-6.475938048371164e-05
-1.240073243305171e-05
1.2400732433050376e-05
-4.133577477684346e-06
-2.342360570687485e-05
-1.377859159228559e-06
5.9247943846798756e-05
0.00010333943694209132
9.782800030517979e-05
7.30265354390777e-05
8.404940871290084e-05
0.00013640805676356078
0.0001694766765850302
0.00015845380331120705
0.00011711802853437029
0.00010058371862363556
0.00011987374685282605
0.00014467521171892812
0.0001253851834897376
7.02708171206219e-05
3.169076066224089e-05
4.546935225451981e-05
7.853797207598924e-05
7.02708171206219e-05
1.7912169069961946e-05
-2.066788738841907e-05
-9.64501411459592e-06
2.8935042343785094e-05
3.444647898069667e-05
-1.240073243305171e-05
-5.6492225528344285e-05
-6.889295796140132e-06
1.3778591592272275e-06
-3.995791561760957e-05
-8.680512703135793e-05
-8.680512703135793e-05
-4.2713633936065354e-05
-1.5156450751507488e-05
-4.5469352254521147e-05
-0.00010058371862363688
-0.00010885087357900426
-6.200366216525588e-05
-1.5156450751507488e-05
-2.8935042343786426e-05
-7.57822537575348e-05
-8.680512703135793e-05
-4.2713633936065354e-05
6.8892957961388014e-06
6.8892957961388014e-06
-3.720219729915378e-05
-6.475938048371164e-05
-2.066788738841907e-05
4.82250705729756e-05
6.475938048371032e-05
2.066788738841773e-05
-2.066788738841907e-05
4.133577477683014e-06
7.578225375753347e-05
9.507228198672396e-05
3.9957915617608246e-05
-1.7912169069963278e-05
-6.889295796140132e-06
5.649222552834297e-05
8.956084534981241e-05
4.271363393606403e-05
-2.8935042343786426e-05
-4.2713633936065354e-05
6.8892957961388014e-06
3.169076066224089e-05
-1.5156450751507488e-05
-8.956084534981374e-05
-0.00012538518348973897
-9.507228198672531e-05
-5.098078889143272e-05
-7.85379720759906e-05
-0.000150186648355841
-0.00018876670481422206
-0.00014467521171892948
-8.680512703135793e-05
-8.404940871290214e-05
-0.00014467521171892948
-0.00018876670481422206
-0.00015569808499275262
-8.956084534981374e-05
-7.027081712062322e-05
-0.00012538518348973897
-0.00018325526817731047
-0.00017498811322194308
-0.0001198737468528274
-0.00011160659189746003
-0.0001584538033112084
-0.0001336523384451063
0.00010058371862363556
0.000469849973296711
0.0007619561150530243
0.0007812461432822147
0.00016672095826657444
-0.0003375754940108345
-0.0008666734111543456
-0.0011890924544136726
-0.001274519722285802
-0.0012249167925535982
-0.0010595736934462504
-0.0008721848477912571
-0.000720620340276189
-0.0006048801709010458
-0.00048638428320744705
-0.0003596212405584808
-0.0002466367895017936
-0.00018601098649576628
-0.00018601098649576628
-0.0001997895780880452
-0.0001777438315403989
-0.0001364080567635621
-0.00010885087357900426
-0.0001226294651712832
-0.000150186648355841
-0.00014467521171892948
-0.00010885087357900426
-7.57822537575348e-05
-8.680512703135793e-05
-0.0001198737468528274
-0.00012814090180819475
-9.78280003051811e-05
-6.200366216525588e-05
-5.3736507209888505e-05
-7.57822537575348e-05
-8.956084534981374e-05
-5.6492225528344285e-05
-6.889295796140132e-06
1.2400732433050376e-05
1.3778591592272275e-06
-9.64501411459592e-06
1.7912169069961946e-05
6.751509880216611e-05
0.00010058371862363556
9.782800030517979e-05
8.404940871290084e-05
9.23165636682682e-05
0.00013089662012664922
0.0001556980849927513
0.00014191949340047234
0.00011160659189745871
0.00010058371862363556
0.00011160659189745871
0.00011987374685282605
9.507228198672396e-05
5.098078889143139e-05
2.3423605706873515e-05
2.3423605706873515e-05
3.720219729915245e-05
2.6179324025329308e-05
-6.889295796140132e-06
-3.4446478980697995e-05
-3.169076066224221e-05
-1.240073243305171e-05
-1.5156450751507488e-05
-3.995791561760957e-05
-6.475938048371164e-05
-6.751509880216745e-05
-5.3736507209888505e-05
-5.098078889143272e-05
-0.00010333943694209268
-0.00010885087357900426
-8.404940871290214e-05
-6.200366216525588e-05
-6.751509880216745e-05
-8.680512703135793e-05
-8.129369039444639e-05
-4.8225070572976926e-05
-1.7912169069963278e-05
-9.64501411459592e-06
-2.066788738841907e-05
-1.5156450751507488e-05
9.64501411459459e-06
4.271363393606403e-05
5.649222552834297e-05
4.546935225451981e-05
3.169076066224089e-05
4.546935225451981e-05
7.853797207598924e-05
9.782800030517979e-05
8.68051270313566e-05
6.475938048371032e-05
6.475938048371032e-05
9.23165636682682e-05
0.00010609515526054714
8.129369039444505e-05
5.098078889143139e-05
4.271363393606403e-05
5.098078889143139e-05
6.475938048371032e-05
5.649222552834297e-05
2.3423605706873515e-05
1.3778591592272275e-06
6.8892957961388014e-06
1.7912169069961946e-05
-1.377859159228559e-06
-3.995791561760957e-05
-6.200366216525588e-05
-6.475938048371164e-05
-6.200366216525588e-05
-8.404940871290214e-05
-0.0001198737468528274
-0.00014467521171892948
-0.0001336523384451063
-0.00010885087357900426
-0.00010333943694209268
-0.00013089662012665053
-0.00015294236667429682
-0.00014743093003738526
-0.00012538518348973897
-0.00011160659189746003
-0.00013089662012665053
-0.0001584538033112084
-0.0001612095216296642
-0.0001391637750820179
-0.00012538518348973897
-0.00014191949340047367
-0.00014467521171892948
-2.6179324025330647e-05
0.00029623971923399637
0.0006682616922255276
0.0007784904249637591
0.0006186587624933234
0.00034584264896620056
-3.995791561760957e-05
-0.0010733522850385297
-0.0013323898069733738
-0.0013379012436102852
-0.0011753138628213936
-0.000979657862211033
-0.0008005361715114068
-0.0006351930724040594
-0.00048362856488899143
-0.0003651326771953924
-0.0002604153810940725
-0.00018876670481422206
-0.00016947667658503157
-0.00017223239490348733
-0.00015569808499275262
-0.0001226294651712832
-9.231656366826955e-05
-9.78280003051811e-05
-0.0001198737468528274
-0.0001226294651712832
-0.00010058371862363688
-8.129369039444639e-05
-8.956084534981374e-05
-0.00011160659189746003
-0.0001171180285343716
-9.231656366826955e-05
-6.751509880216745e-05
-6.751509880216745e-05
-8.680512703135793e-05
-9.507228198672531e-05
-6.475938048371164e-05
-2.342360570687485e-05
-4.133577477684346e-06
-6.889295796140132e-06
-1.240073243305171e-05
1.5156450751506162e-05
6.475938048371032e-05
0.00010333943694209132
0.00010885087357900291
0.00010885087357900291
0.00013089662012664922
0.00016396523994811866
0.0001832552681773092
0.00017774383154039756
0.00016672095826657444
0.00016672095826657444
0.00017774383154039756
0.00017498811322194178
0.00013916377508201656
9.507228198672396e-05
7.30265354390777e-05
7.853797207598924e-05
8.68051270313566e-05
7.853797207598924e-05
4.546935225451981e-05
1.5156450751506162e-05
1.2400732433050376e-05
1.5156450751506162e-05
9.64501411459459e-06
-2.066788738841907e-05
-3.4446478980697995e-05
-1.5156450751507488e-05
9.64501411459459e-06
-1.377859159228559e-06
-4.5469352254521147e-05
-7.57822537575348e-05
-2.066788738841907e-05
-2.342360570687485e-05
-8.129369039444639e-05
-0.00012814090180819475
-0.0001171180285343716
-5.9247943846800084e-05
-3.169076066224221e-05
-7.027081712062322e-05
-0.00011436231021591582
-0.00010609515526054846
-5.3736507209888505e-05
-2.8935042343786426e-05
-5.9247943846800084e-05
-0.00011160659189746003
-0.00010885087357900426
-4.2713633936065354e-05
6.8892957961388014e-06
-2.066788738841907e-05
-9.231656366826955e-05
-0.00011160659189746003
-5.9247943846800084e-05
1.3778591592272275e-06
1.3778591592272275e-06
-3.169076066224221e-05
-5.098078889143272e-05
-2.6179324025330647e-05
1.5156450751506162e-05
2.066788738841773e-05
-6.889295796140132e-06
-2.342360570687485e-05
-9.64501411459592e-06
1.5156450751506162e-05
1.2400732433050376e-05
-3.169076066224221e-05
-8.404940871290214e-05
-9.231656366826955e-05
-6.751509880216745e-05
-6.475938048371164e-05
-0.00010609515526054846
-0.00017498811322194308
-0.0001997895780880452
-0.0001612095216296642
-0.00011436231021591582
-0.00012538518348973897
-0.00018049954985885472
-0.00020530101472495681
-0.00017498811322194308
-0.000150186648355841
-0.00019427814145113364
-0.00025765966277561676
-0.00027419397268635144
-0.00022459104295414727
-0.0001612095216296642
-0.0001336523384451063
-0.0001777438315403989
-0.00022459104295414727
-0.00019703385976958942
-4.5469352254521147e-05
0.0002383696345464249
0.0005525215228503846
0.0006627502555886161
0.0005690558327611192
0.00038993414206149314
4.271363393606403e-05
-0.0005139414663920051
-0.0013847484550240335
-0.0013379012436102852
-0.0011450009613183801
-0.0009961921721217675
-0.0008804520027466246
-0.0007123531853208215
-0.0004946514381628143
-0.0003155297474631883
-0.00024112535286488197
-0.00023836963454642628
-0.00023010247959105888
-0.00016947667658503157
-9.507228198672531e-05
-8.680512703135793e-05
-0.00014467521171892948
-0.00018601098649576628
-0.00015294236667429682
-7.57822537575348e-05
-5.3736507209888505e-05
-0.00011160659189746003
-0.00016947667658503157
-0.00015569808499275262
-7.85379720759906e-05
-3.720219729915378e-05
-7.57822537575348e-05
-0.0001336523384451063
-0.00012814090180819475
-4.8225070572976926e-05
1.5156450751506162e-05
-6.889295796140132e-06
-6.200366216525588e-05
-6.475938048371164e-05
6.8892957961388014e-06
8.68051270313566e-05
8.68051270313566e-05
2.8935042343785094e-05
6.8892957961388014e-06
6.751509880216611e-05
0.00015018664835583973
0.00016672095826657444
0.00010885087357900291
6.200366216525454e-05
0.00010333943694209132
0.00018049954985885336
0.0001970338597695881
0.00013089662012664922
6.475938048371032e-05
7.578225375753347e-05
0.00014467521171892812
0.00017498811322194178
0.00011160659189745871
2.6179324025329308e-05
9.64501411459459e-06
6.751509880216611e-05
0.00010885087357900291
5.649222552834297e-05
-3.720219729915378e-05
-6.475938048371164e-05
-4.133577477684346e-06
5.373650720988717e-05
2.8935042343785094e-05
-5.9247943846800084e-05
-0.00010333943694209268
-4.8225070572976926e-05
2.6179324025329308e-05
1.7912169069961946e-05
-0.00014467521171892948
-0.00010885087357900426
-3.4446478980697995e-05
-2.342360570687485e-05
-0.00010609515526054846
-0.00018601098649576628
-0.00016396523994811996
-7.57822537575348e-05
-3.169076066224221e-05
-9.507228198672531e-05
-0.00017498811322194308
-0.00016396523994811996
-6.751509880216745e-05
4.133577477683014e-06
-2.8935042343786426e-05
-0.00010058371862363688
-9.78280003051811e-05
-4.133577477684346e-06
7.578225375753347e-05
5.373650720988717e-05
-2.6179324025330647e-05
-6.200366216525588e-05
1.3778591592272275e-06
8.404940871290084e-05
7.30265354390777e-05
-2.066788738841907e-05
-7.302653543907902e-05
-2.6179324025330647e-05
5.098078889143139e-05
5.649222552834297e-05
-3.169076066224221e-05
-0.00011160659189746003
-9.507228198672531e-05
-2.342360570687485e-05
-4.133577477684346e-06
-8.680512703135793e-05
-0.00019152242313267784
-0.0002080567330434125
-0.0001336523384451063
-8.956084534981374e-05
-0.00014191949340047367
-0.00023285819790951464
-0.0002521482261387052
-0.00018601098649576628
-0.00012538518348973897
-0.000150186648355841
-0.00023561391622797047
-0.00027143825436789566
-0.0002080567330434125
-0.0001364080567635621
-0.00014743093003738526
-0.00023561391622797047
-0.0002989954375524536
-0.00023010247959105888
1.3778591592272275e-06
0.000340331212329289
0.0005718115510795751
0.000547010086213473
0.0004009570153353164
0.00018876670481422076
-0.0002190796063172357
-0.0008115590447852298
-0.0013130997787441834
-0.0014591528496223395
-0.0013048326237888157
-0.0009576121156633864
-0.0008446276646066993
-0.0006710174105439848
-0.0004560713817044334
-0.00030175115587090934
-0.0002521482261387052
-0.0002686825360494398
-0.0002604153810940725
-0.00019152242313267784
-0.0001226294651712832
-0.00013089662012665053
-0.00019703385976958942
-0.00023285819790951464
-0.00018601098649576628
-0.0001198737468528274
-0.00011436231021591582
-0.00017498811322194308
-0.0002218353246356915
-0.00018876670481422206
-0.0001171180285343716
-8.956084534981374e-05
-0.0001391637750820179
-0.00018601098649576628
-0.0001612095216296642
-8.129369039444639e-05
-3.4446478980697995e-05
-6.475938048371164e-05
-0.00011436231021591582
-9.78280003051811e-05
-1.240073243305171e-05
5.649222552834297e-05
4.271363393606403e-05
-4.133577477684346e-06
4.133577477683014e-06
8.404940871290084e-05
0.00015845380331120705
0.00014743093003738393
8.68051270313566e-05
6.200366216525454e-05
0.00011160659189745871
0.000172232394903486
0.00015845380331120705
7.853797207598924e-05
2.066788738841773e-05
3.720219729915245e-05
9.23165636682682e-05
9.23165636682682e-05
2.066788738841773e-05
-4.8225070572976926e-05
-3.720219729915378e-05
2.6179324025329308e-05
4.82250705729756e-05
-6.889295796140132e-06
-7.85379720759906e-05
-7.85379720759906e-05
-9.64501411459592e-06
3.444647898069667e-05
-6.889295796140132e-06
-8.404940871290214e-05
-0.00010609515526054846
-4.8225070572976926e-05
4.133577477683014e-06
-2.6179324025330647e-05
-0.00010609515526054846
-0.0001364080567635621
-3.169076066224221e-05
-3.720219729915378e-05
-0.00010333943694209268
-0.00014467521171892948
-0.00010609515526054846
-3.720219729915378e-05
-2.342360570687485e-05
-7.57822537575348e-05
-0.0001226294651712832
-9.78280003051811e-05
-2.6179324025330647e-05
6.8892957961388014e-06
-2.6179324025330647e-05
-6.475938048371164e-05
-4.5469352254521147e-05
2.066788738841773e-05
7.02708171206219e-05
3.9957915617608246e-05
-2.066788738841907e-05
-2.8935042343786426e-05
2.6179324025329308e-05
6.751509880216611e-05
3.9957915617608246e-05
-2.342360570687485e-05
-4.8225070572976926e-05
-4.133577477684346e-06
4.546935225451981e-05
2.066788738841773e-05
-5.6492225528344285e-05
-0.00010885087357900426
-8.129369039444639e-05
-3.4446478980697995e-05
-4.8225070572976926e-05
-0.00012538518348973897
-0.00018876670481422206
-0.00017223239490348733
-0.00010885087357900426
-8.404940871290214e-05
-0.0001391637750820179
-0.0001997895780880452
-0.00019427814145113364
-0.00012814090180819475
-8.956084534981374e-05
-0.00013089662012665053
-0.00019703385976958942
-0.00020530101472495681
-0.00014467521171892948
-9.78280003051811e-05
-0.00013089662012665053
-0.00021632388799877996
-0.00023561391622797047
-7.85379720759906e-05
0.00023561391622796914
0.0005304757763027383
0.0006159030441748677
0.0004918957198443572
0.0002852168459601733
-3.720219729915378e-05
-0.0005663001144426648
-0.0011312223697261012
-0.001401282764934768
-0.0013296340886549175
-0.0011009094682230872
-0.0009135206225680943
-0.000795024734874495
-0.0004974071564812702
-0.0003100183108262768
-0.0001997895780880452
-0.00018876670481422206
-0.0002190796063172357
-0.00020530101472495681
-0.00013089662012665053
-7.302653543907902e-05
-0.00010609515526054846
-0.00018049954985885472
-0.00019427814145113364
-0.00012538518348973897
-5.6492225528344285e-05
-7.027081712062322e-05
-0.0001391637750820179
-0.00016947667658503157
-0.00011160659189746003
-3.169076066224221e-05
-3.169076066224221e-05
-0.00010885087357900426
-0.00015294236667429682
-0.00010333943694209268
-1.240073243305171e-05
1.5156450751506162e-05
-3.720219729915378e-05
-8.680512703135793e-05
-4.2713633936065354e-05
5.649222552834297e-05
0.00010885087357900291
7.30265354390777e-05
2.066788738841773e-05
4.546935225451981e-05
0.00014191949340047234
0.00020254529640649968
0.0001694766765850302
9.782800030517979e-05
8.404940871290084e-05
0.00015294236667429551
0.000210812451361867
0.00018049954985885336
8.68051270313566e-05
4.271363393606403e-05
8.956084534981241e-05
0.00015018664835583973
0.00013089662012664922
4.271363393606403e-05
-1.240073243305171e-05
2.3423605706873515e-05
9.507228198672396e-05
9.782800030517979e-05
1.7912169069961946e-05
-4.8225070572976926e-05
-2.6179324025330647e-05
4.546935225451981e-05
6.751509880216611e-05
4.133577477683014e-06
-6.751509880216745e-05
-6.200366216525588e-05
1.2400732433050376e-05
5.373650720988717e-05
1.3778591592272275e-06
-7.85379720759906e-05
-8.404940871290214e-05
-1.240073243305171e-05
4.271363393606403e-05
1.2400732433050376e-05
-8.956084534981374e-05
-3.169076066224221e-05
4.271363393606403e-05
4.271363393606403e-05
-3.169076066224221e-05
-7.85379720759906e-05
-2.6179324025330647e-05
6.475938048371032e-05
9.23165636682682e-05
3.169076066224089e-05
-2.342360570687485e-05
6.8892957961388014e-06
8.68051270313566e-05
0.00011987374685282605
5.9247943846798756e-05
-9.64501411459592e-06
-1.377859159228559e-06
6.751509880216611e-05
0.00011987374685282605
8.129369039444505e-05
1.3778591592272275e-06
-2.342360570687485e-05
2.3423605706873515e-05
6.751509880216611e-05
2.6179324025329308e-05
-6.200366216525588e-05
-0.00010058371862363688
-5.9247943846800084e-05
-6.889295796140132e-06
-3.4446478980697995e-05
-0.0001198737468528274
-0.00016947667658503157
-0.00012814090180819475
-5.9247943846800084e-05
-6.200366216525588e-05
-0.0001364080567635621
-0.00019427814145113364
-0.00016672095826657574
-8.956084534981374e-05
-6.751509880216745e-05
-0.00013089662012665053
-0.00019703385976958942
-0.0001777438315403989
-0.00010058371862363688
