1.5156450751506162e-05
1.2400732433050376e-05
4.133577477683014e-06
4.133577477683014e-06
1.5156450751506162e-05
2.6179324025329308e-05
1.2400732433050376e-05
1.5156450751506162e-05
2.8935042343785094e-05
4.546935225451981e-05
5.098078889143139e-05
4.546935225451981e-05
4.271363393606403e-05
5.649222552834297e-05
7.578225375753347e-05
8.68051270313566e-05
8.404940871290084e-05
8.68051270313566e-05
0.00010058371862363556
0.00011711802853437029
0.00013365233844510492
0.00013640805676356078
0.00013640805676356078
0.00014743093003738393
0.0001694766765850302
0.00018876670481422076
0.0001970338597695881
0.0001970338597695881
0.00020530101472495543
0.0002218353246356902
0.00023285819790951333
0.00023285819790951333
0.0002218353246356902
0.000210812451361867
0.000210812451361867
0.000210812451361867
0.00019427814145113231
0.0001694766765850302
0.00014743093003738393
0.00013916377508201656
0.00013640805676356078
0.00012262946517128183
0.00010058371862363556
7.853797207598924e-05
7.30265354390777e-05
7.578225375753347e-05
7.02708171206219e-05
5.373650720988717e-05
3.444647898069667e-05
2.3423605706873515e-05
2.8935042343785094e-05
2.8935042343785094e-05
1.7912169069961946e-05
4.133577477683014e-06
1.3778591592272275e-06
6.8892957961388014e-06
1.7912169069961946e-05
1.2400732433050376e-05
1.3778591592272275e-06
1.3778591592272275e-06
1.2400732433050376e-05
2.3423605706873515e-05
2.3423605706873515e-05
2.066788738841773e-05
2.066788738841773e-05
3.169076066224089e-05
4.82250705729756e-05
5.373650720988717e-05
4.82250705729756e-05
4.271363393606403e-05
4.82250705729756e-05
7.02708171206219e-05
6.475938048371032e-05
5.649222552834297e-05
5.9247943846798756e-05
7.02708171206219e-05
7.578225375753347e-05
6.475938048371032e-05
5.098078889143139e-05
4.82250705729756e-05
5.9247943846798756e-05
6.751509880216611e-05
5.9247943846798756e-05
4.271363393606403e-05
2.8935042343785094e-05
3.444647898069667e-05
4.271363393606403e-05
3.720219729915245e-05
2.066788738841773e-05
1.2400732433050376e-05
9.64501411459459e-06
1.7912169069961946e-05
2.066788738841773e-05
9.64501411459459e-06
-1.377859159228559e-06
-1.377859159228559e-06
6.8892957961388014e-06
6.8892957961388014e-06
1.3778591592272275e-06
-1.240073243305171e-05
-1.5156450751507488e-05
-9.64501411459592e-06
-4.133577477684346e-06
-9.64501411459592e-06
-2.066788738841907e-05
-2.342360570687485e-05
-1.5156450751507488e-05
-6.889295796140132e-06
-9.64501411459592e-06
-2.342360570687485e-05
-2.8935042343786426e-05
-2.066788738841907e-05
-1.240073243305171e-05
-1.240073243305171e-05
-2.342360570687485e-05
-3.169076066224221e-05
-2.6179324025330647e-05
-1.240073243305171e-05
-1.5156450751507488e-05
-2.6179324025330647e-05
-3.4446478980697995e-05
-2.8935042343786426e-05
-1.5156450751507488e-05
-1.377859159228559e-06
6.8892957961388014e-06
4.133577477683014e-06
1.2400732433050376e-05
3.169076066224089e-05
3.9957915617608246e-05
3.169076066224089e-05
2.6179324025329308e-05
2.8935042343785094e-05
4.546935225451981e-05
5.9247943846798756e-05
5.9247943846798756e-05
4.271363393606403e-05
3.9957915617608246e-05
4.546935225451981e-05
3.720219729915245e-05
2.3423605706873515e-05
4.133577477683014e-06
-6.889295796140132e-06
-9.64501411459592e-06
-1.7912169069963278e-05
-2.8935042343786426e-05
-3.4446478980697995e-05
-3.169076066224221e-05
-1.7912169069963278e-05
-1.5156450751507488e-05
-2.6179324025330647e-05
-3.720219729915378e-05
-3.4446478980697995e-05
-2.342360570687485e-05
-1.7912169069963278e-05
-2.066788738841907e-05
-2.8935042343786426e-05
-3.169076066224221e-05
-2.066788738841907e-05
-6.889295796140132e-06
6.8892957961388014e-06
8.129369039444505e-05
0.00029623971923399637
0.0005883458609903097
0.0007619561150530243
0.0007151089036392759
0.0005111857480735478
0.00019152242313267648
-0.00023561391622797047
-0.0006599945372701616
-0.0008914748760204477
-0.0008804520027466246
-0.0007702232700083929
-0.0006351930724040594
-0.0004974071564812702
-0.000370644113832304
-0.00027143825436789566
-0.00019703385976958942
-0.00013089662012665053
-6.475938048371164e-05
-3.169076066224221e-05
-2.6179324025330647e-05
-2.8935042343786426e-05
-2.8935042343786426e-05
-1.5156450751507488e-05
1.3778591592272275e-06
1.3778591592272275e-06
-6.889295796140132e-06
-9.64501411459592e-06
-1.377859159228559e-06
1.2400732433050376e-05
9.64501411459459e-06
1.3778591592272275e-06
-1.377859159228559e-06
9.64501411459459e-06
2.066788738841773e-05
2.3423605706873515e-05
1.2400732433050376e-05
9.64501411459459e-06
2.066788738841773e-05
3.720219729915245e-05
4.546935225451981e-05
3.9957915617608246e-05
4.82250705729756e-05
7.02708171206219e-05
8.129369039444505e-05
8.129369039444505e-05
8.129369039444505e-05
8.956084534981241e-05
0.00010885087357900291
0.00012262946517128183
0.00012814090180819342
0.00012814090180819342
0.00013365233844510492
0.0001556980849927513
0.00017498811322194178
0.00017774383154039756
0.00017774383154039756
0.00018049954985885336
0.00019152242313267648
0.000210812451361867
0.00021632388799877858
0.00019978957808804387
0.00018876670481422076
0.00018601098649576498
0.00018601098649576498
0.00018049954985885336
0.00015845380331120705
0.00013365233844510492
0.00012814090180819342
0.0001253851834897376
0.00011987374685282605
0.00010333943694209132
7.853797207598924e-05
7.02708171206219e-05
7.02708171206219e-05
7.02708171206219e-05
5.9247943846798756e-05
4.271363393606403e-05
3.169076066224089e-05
3.720219729915245e-05
4.546935225451981e-05
3.9957915617608246e-05
2.6179324025329308e-05
1.7912169069961946e-05
2.3423605706873515e-05
3.444647898069667e-05
3.169076066224089e-05
1.5156450751506162e-05
6.8892957961388014e-06
1.2400732433050376e-05
2.3423605706873515e-05
2.6179324025329308e-05
1.5156450751506162e-05
9.64501411459459e-06
1.5156450751506162e-05
2.6179324025329308e-05
3.720219729915245e-05
3.720219729915245e-05
3.169076066224089e-05
3.444647898069667e-05
4.82250705729756e-05
5.9247943846798756e-05
5.098078889143139e-05
4.271363393606403e-05
4.271363393606403e-05
5.373650720988717e-05
6.200366216525454e-05
4.82250705729756e-05
3.9957915617608246e-05
4.271363393606403e-05
5.373650720988717e-05
5.373650720988717e-05
3.720219729915245e-05
2.066788738841773e-05
2.3423605706873515e-05
3.169076066224089e-05
3.169076066224089e-05
1.7912169069961946e-05
4.133577477683014e-06
-1.377859159228559e-06
1.3778591592272275e-06
1.3778591592272275e-06
-6.889295796140132e-06
-2.066788738841907e-05
-2.342360570687485e-05
-1.240073243305171e-05
-6.889295796140132e-06
-1.5156450751507488e-05
-2.6179324025330647e-05
-1.7912169069963278e-05
1.3778591592272275e-06
1.5156450751506162e-05
1.2400732433050376e-05
6.8892957961388014e-06
4.133577477683014e-06
1.2400732433050376e-05
2.3423605706873515e-05
2.6179324025329308e-05
2.066788738841773e-05
2.066788738841773e-05
2.6179324025329308e-05
3.169076066224089e-05
3.169076066224089e-05
1.7912169069961946e-05
1.3778591592272275e-06
-4.133577477684346e-06
1.3778591592272275e-06
-4.133577477684346e-06
-2.8935042343786426e-05
-5.9247943846800084e-05
-7.027081712062322e-05
-6.200366216525588e-05
-5.3736507209888505e-05
-5.6492225528344285e-05
-6.751509880216745e-05
-7.302653543907902e-05
-6.200366216525588e-05
-5.3736507209888505e-05
-5.3736507209888505e-05
-6.200366216525588e-05
-6.751509880216745e-05
-6.200366216525588e-05
-5.3736507209888505e-05
-5.098078889143272e-05
-5.9247943846800084e-05
-6.200366216525588e-05
-5.098078889143272e-05
1.3778591592272275e-06
0.0001253851834897376
0.0003596212405584795
0.0005938572976272215
0.0006958188754100854
0.0003844227054245816
9.64501411459459e-06
-0.0004560713817044334
-0.0008336047913328761
-0.0009383220874341961
-0.0008501391012436108
-0.0007371546501869236
-0.000629681635767148
-0.0005111857480735491
-0.0003844227054245829
-0.00027419397268635144
-0.00020254529640650095
-0.00014467521171892948
-9.78280003051811e-05
-5.9247943846800084e-05
-2.8935042343786426e-05
-2.066788738841907e-05
-2.6179324025330647e-05
-2.8935042343786426e-05
-2.066788738841907e-05
-4.133577477684346e-06
4.133577477683014e-06
-6.889295796140132e-06
-1.5156450751507488e-05
-9.64501411459592e-06
4.133577477683014e-06
1.5156450751506162e-05
1.2400732433050376e-05
4.133577477683014e-06
4.133577477683014e-06
2.066788738841773e-05
3.444647898069667e-05
3.169076066224089e-05
2.6179324025329308e-05
2.8935042343785094e-05
4.546935225451981e-05
6.200366216525454e-05
6.751509880216611e-05
6.475938048371032e-05
7.02708171206219e-05
8.404940871290084e-05
0.00010333943694209132
0.00011160659189745871
0.00011436231021591448
0.00011711802853437029
0.00013089662012664922
0.00015294236667429551
0.0001694766765850302
0.0001694766765850302
0.0001694766765850302
0.00018601098649576498
0.00020805673304341124
0.0002190796063172344
0.0002190796063172344
0.0002135681696803228
0.0002135681696803228
0.00021632388799877858
0.0002190796063172344
0.00020530101472495543
0.00018601098649576498
0.00017498811322194178
0.000172232394903486
0.00016396523994811866
0.00014467521171892812
0.00011987374685282605
9.507228198672396e-05
9.23165636682682e-05
7.578225375753347e-05
5.098078889143139e-05
3.444647898069667e-05
2.8935042343785094e-05
2.8935042343785094e-05
2.8935042343785094e-05
1.5156450751506162e-05
1.3778591592272275e-06
4.133577477683014e-06
1.7912169069961946e-05
2.3423605706873515e-05
1.5156450751506162e-05
6.8892957961388014e-06
9.64501411459459e-06
2.066788738841773e-05
2.8935042343785094e-05
2.8935042343785094e-05
2.6179324025329308e-05
2.6179324025329308e-05
4.271363393606403e-05
5.649222552834297e-05
5.9247943846798756e-05
5.373650720988717e-05
5.373650720988717e-05
6.475938048371032e-05
7.578225375753347e-05
7.853797207598924e-05
7.30265354390777e-05
6.475938048371032e-05
7.02708171206219e-05
7.853797207598924e-05
7.853797207598924e-05
7.02708171206219e-05
6.200366216525454e-05
5.9247943846798756e-05
6.475938048371032e-05
6.475938048371032e-05
5.373650720988717e-05
4.271363393606403e-05
3.9957915617608246e-05
4.271363393606403e-05
4.271363393606403e-05
3.720219729915245e-05
2.066788738841773e-05
1.2400732433050376e-05
1.7912169069961946e-05
2.3423605706873515e-05
1.5156450751506162e-05
4.133577477683014e-06
-6.889295796140132e-06
-4.133577477684346e-06
4.133577477683014e-06
4.133577477683014e-06
-9.64501411459592e-06
-1.7912169069963278e-05
-1.5156450751507488e-05
-6.889295796140132e-06
-9.64501411459592e-06
-1.5156450751507488e-05
-2.342360570687485e-05
-2.066788738841907e-05
-1.240073243305171e-05
-9.64501411459592e-06
-3.4446478980697995e-05
-3.169076066224221e-05
-2.342360570687485e-05
-1.7912169069963278e-05
-2.066788738841907e-05
-3.169076066224221e-05
-3.4446478980697995e-05
-2.6179324025330647e-05
-1.5156450751507488e-05
-1.5156450751507488e-05
-2.8935042343786426e-05
-3.169076066224221e-05
-2.6179324025330647e-05
-1.240073243305171e-05
-1.240073243305171e-05
-2.6179324025330647e-05
-3.4446478980697995e-05
-2.8935042343786426e-05
-1.5156450751507488e-05
-1.240073243305171e-05
-2.066788738841907e-05
-2.8935042343786426e-05
-2.6179324025330647e-05
-1.240073243305171e-05
-6.889295796140132e-06
-1.377859159228559e-06
-1.377859159228559e-06
6.8892957961388014e-06
2.066788738841773e-05
3.169076066224089e-05
2.8935042343785094e-05
2.066788738841773e-05
2.6179324025329308e-05
4.271363393606403e-05
5.373650720988717e-05
5.373650720988717e-05
4.546935225451981e-05
3.720219729915245e-05
3.9957915617608246e-05
4.82250705729756e-05
4.271363393606403e-05
2.6179324025329308e-05
1.5156450751506162e-05
6.8892957961388014e-06
-6.889295796140132e-06
-1.7912169069963278e-05
-3.169076066224221e-05
-3.995791561760957e-05
-3.720219729915378e-05
-2.8935042343786426e-05
-2.342360570687485e-05
-2.8935042343786426e-05
-3.995791561760957e-05
-4.2713633936065354e-05
-3.4446478980697995e-05
-2.6179324025330647e-05
-2.8935042343786426e-05
-3.995791561760957e-05
-3.995791561760957e-05
-2.8935042343786426e-05
-2.066788738841907e-05
-1.240073243305171e-05
1.2400732433050376e-05
0.00012262946517128183
0.0003596212405584795
0.0006103916075379561
0.0006599945372701603
0.00043126991683832994
7.30265354390777e-05
-0.0003871784237430386
-0.000795024734874495
-0.0009410778057526519
-0.0008804520027466246
-0.0007647118333714817
-0.0006379487907225153
-0.0005111857480735491
-0.00040646845197222917
-0.0003100183108262768
-0.00021632388799877996
-0.0001391637750820179
-7.57822537575348e-05
-4.5469352254521147e-05
-3.995791561760957e-05
-3.720219729915378e-05
-2.066788738841907e-05
-9.64501411459592e-06
-6.889295796140132e-06
-1.5156450751507488e-05
-1.5156450751507488e-05
-4.133577477684346e-06
9.64501411459459e-06
9.64501411459459e-06
1.3778591592272275e-06
-1.377859159228559e-06
6.8892957961388014e-06
2.066788738841773e-05
2.6179324025329308e-05
1.5156450751506162e-05
9.64501411459459e-06
2.066788738841773e-05
3.720219729915245e-05
4.546935225451981e-05
4.271363393606403e-05
4.271363393606403e-05
5.098078889143139e-05
6.751509880216611e-05
7.853797207598924e-05
8.129369039444505e-05
7.853797207598924e-05
8.404940871290084e-05
0.00010058371862363556
0.00011711802853437029
0.00011987374685282605
0.00011987374685282605
0.0001253851834897376
0.00014743093003738393
0.0001694766765850302
0.00017774383154039756
0.00017774383154039756
0.00018049954985885336
0.00019427814145113231
0.0002135681696803228
0.0002218353246356902
0.0002135681696803228
0.0001970338597695881
0.0001970338597695881
0.00020530101472495543
0.00020805673304341124
0.00019152242313267648
0.000172232394903486
0.00016120952162966288
0.00015294236667429551
0.00013365233844510492
0.00010609515526054714
8.956084534981241e-05
8.129369039444505e-05
7.853797207598924e-05
7.02708171206219e-05
5.098078889143139e-05
3.444647898069667e-05
3.169076066224089e-05
3.9957915617608246e-05
3.720219729915245e-05
2.3423605706873515e-05
1.5156450751506162e-05
2.066788738841773e-05
3.169076066224089e-05
3.720219729915245e-05
3.169076066224089e-05
2.066788738841773e-05
2.6179324025329308e-05
3.9957915617608246e-05
5.098078889143139e-05
5.098078889143139e-05
4.271363393606403e-05
4.82250705729756e-05
6.751509880216611e-05
7.853797207598924e-05
7.578225375753347e-05
6.751509880216611e-05
6.751509880216611e-05
7.853797207598924e-05
8.956084534981241e-05
8.68051270313566e-05
7.578225375753347e-05
7.02708171206219e-05
7.578225375753347e-05
8.404940871290084e-05
8.129369039444505e-05
6.751509880216611e-05
5.9247943846798756e-05
6.200366216525454e-05
6.751509880216611e-05
6.200366216525454e-05
4.82250705729756e-05
3.444647898069667e-05
3.169076066224089e-05
3.720219729915245e-05
3.444647898069667e-05
2.066788738841773e-05
4.133577477683014e-06
-1.377859159228559e-06
6.8892957961388014e-06
6.8892957961388014e-06
-1.377859159228559e-06
-1.5156450751507488e-05
-1.7912169069963278e-05
-1.5156450751507488e-05
-9.64501411459592e-06
-1.7912169069963278e-05
-3.4446478980697995e-05
-3.995791561760957e-05
-3.4446478980697995e-05
-2.6179324025330647e-05
-2.6179324025330647e-05
-3.720219729915378e-05
-4.5469352254521147e-05
-3.169076066224221e-05
-2.342360570687485e-05
-1.7912169069963278e-05
-1.7912169069963278e-05
-1.5156450751507488e-05
-1.377859159228559e-06
9.64501411459459e-06
6.8892957961388014e-06
-4.133577477684346e-06
4.133577477683014e-06
2.066788738841773e-05
3.444647898069667e-05
3.169076066224089e-05
1.7912169069961946e-05
9.64501411459459e-06
1.2400732433050376e-05
1.2400732433050376e-05
1.3778591592272275e-06
-1.7912169069963278e-05
-2.6179324025330647e-05
-2.8935042343786426e-05
-3.720219729915378e-05
-5.098078889143272e-05
-6.475938048371164e-05
-7.302653543907902e-05
-7.027081712062322e-05
-5.6492225528344285e-05
-5.3736507209888505e-05
-6.200366216525588e-05
-7.027081712062322e-05
-6.751509880216745e-05
-5.6492225528344285e-05
-5.3736507209888505e-05
-6.475938048371164e-05
-7.302653543907902e-05
-7.027081712062322e-05
-5.9247943846800084e-05
-5.098078889143272e-05
-4.5469352254521147e-05
-2.8935042343786426e-05
6.475938048371032e-05
0.00029072828259708476
0.0005663001144426635
0.0007206203402761877
0.000687551720454718
0.0004863842832074457
0.00015018664835583973
-0.0003127740291447324
-0.0007729789883268486
-0.0009906807354848563
-0.0009576121156633864
-0.0008363605096513318
-0.0007040860303654542
-0.0005883458609903113
-0.00048362856488899143
-0.00037615555046921565
-0.00027694969100480727
-0.00019703385976958942
-0.00012814090180819475
-9.507228198672531e-05
-8.680512703135793e-05
-7.302653543907902e-05
-5.6492225528344285e-05
-4.2713633936065354e-05
-5.098078889143272e-05
-4.8225070572976926e-05
-3.169076066224221e-05
-1.7912169069963278e-05
-1.7912169069963278e-05
-2.6179324025330647e-05
-2.6179324025330647e-05
-1.5156450751507488e-05
-4.133577477684346e-06
-6.889295796140132e-06
-1.240073243305171e-05
-1.5156450751507488e-05
-6.889295796140132e-06
9.64501411459459e-06
1.7912169069961946e-05
1.2400732433050376e-05
1.2400732433050376e-05
2.3423605706873515e-05
4.271363393606403e-05
5.649222552834297e-05
5.649222552834297e-05
5.649222552834297e-05
6.475938048371032e-05
8.404940871290084e-05
0.00010333943694209132
0.00010885087357900291
0.00010609515526054714
0.00011711802853437029
0.00013916377508201656
0.0001556980849927513
0.00016396523994811866
0.00016120952162966288
0.00016396523994811866
0.00017774383154039756
0.00019152242313267648
0.00019152242313267648
0.00018049954985885336
0.0001694766765850302
0.0001694766765850302
0.00017498811322194178
0.00016672095826657444
0.00014467521171892812
0.00011987374685282605
0.00010609515526054714
0.00010333943694209132
9.507228198672396e-05
7.02708171206219e-05
3.9957915617608246e-05
2.8935042343785094e-05
2.8935042343785094e-05
1.7912169069961946e-05
1.3778591592272275e-06
-1.5156450751507488e-05
-2.066788738841907e-05
-1.7912169069963278e-05
-1.5156450751507488e-05
-2.066788738841907e-05
-3.4446478980697995e-05
-3.995791561760957e-05
-3.169076066224221e-05
-2.066788738841907e-05
-1.7912169069963278e-05
-2.6179324025330647e-05
-2.6179324025330647e-05
-1.5156450751507488e-05
1.3778591592272275e-06
6.8892957961388014e-06
9.64501411459459e-06
1.7912169069961946e-05
3.444647898069667e-05
4.546935225451981e-05
3.9957915617608246e-05
3.720219729915245e-05
4.271363393606403e-05
5.9247943846798756e-05
6.751509880216611e-05
6.475938048371032e-05
5.098078889143139e-05
4.82250705729756e-05
5.649222552834297e-05
5.9247943846798756e-05
5.373650720988717e-05
3.720219729915245e-05
2.6179324025329308e-05
2.8935042343785094e-05
3.169076066224089e-05
2.6179324025329308e-05
1.2400732433050376e-05
1.3778591592272275e-06
1.3778591592272275e-06
6.8892957961388014e-06
4.133577477683014e-06
-9.64501411459592e-06
-2.342360570687485e-05
-2.342360570687485e-05
-1.5156450751507488e-05
-1.240073243305171e-05
-2.6179324025330647e-05
-3.995791561760957e-05
-4.2713633936065354e-05
-3.169076066224221e-05
-2.6179324025330647e-05
-3.4446478980697995e-05
-4.8225070572976926e-05
-4.8225070572976926e-05
-3.995791561760957e-05
-3.4446478980697995e-05
-3.4446478980697995e-05
-4.8225070572976926e-05
-5.098078889143272e-05
-4.2713633936065354e-05
-3.4446478980697995e-05
-3.720219729915378e-05
-4.8225070572976926e-05
-5.098078889143272e-05
-4.8225070572976926e-05
-3.995791561760957e-05
-3.720219729915378e-05
-4.8225070572976926e-05
-5.6492225528344285e-05
-5.3736507209888505e-05
-4.2713633936065354e-05
-3.720219729915378e-05
-4.5469352254521147e-05
-5.3736507209888505e-05
-5.6492225528344285e-05
-4.8225070572976926e-05
-3.995791561760957e-05
-4.5469352254521147e-05
-5.098078889143272e-05
-5.098078889143272e-05
-1.240073243305171e-05
-6.889295796140132e-06
-1.5156450751507488e-05
-1.240073243305171e-05
-4.133577477684346e-06
6.8892957961388014e-06
1.2400732433050376e-05
9.64501411459459e-06
6.8892957961388014e-06
1.7912169069961946e-05
3.169076066224089e-05
2.8935042343785094e-05
9.64501411459459e-06
-1.377859159228559e-06
-1.377859159228559e-06
-1.377859159228559e-06
1.3778591592272275e-06
-9.64501411459592e-06
-3.720219729915378e-05
-5.3736507209888505e-05
-5.3736507209888505e-05
-5.098078889143272e-05
-5.6492225528344285e-05
-6.475938048371164e-05
-6.751509880216745e-05
-6.200366216525588e-05
-5.3736507209888505e-05
-5.9247943846800084e-05
-7.027081712062322e-05
-7.57822537575348e-05
-6.475938048371164e-05
-5.3736507209888505e-05
-5.098078889143272e-05
-6.475938048371164e-05
-7.302653543907902e-05
-5.9247943846800084e-05
-3.4446478980697995e-05
2.3423605706873515e-05
0.00018601098649576498
0.0004533156633859763
0.0006847960021362622
0.000753688960097657
0.0006351930724040583
0.0003430869306477448
-9.78280003051811e-05
-0.00060212445258259
-0.0009328106507972846
-0.0009686349889372096
-0.0008776962844281688
-0.0007647118333714817
-0.0006462159456778825
-0.0005194529030289164
-0.00039268986037995033
-0.00029348400091554195
-0.00022459104295414727
-0.0001612095216296642
-0.00010333943694209268
-7.027081712062322e-05
-5.9247943846800084e-05
-5.6492225528344285e-05
-5.6492225528344285e-05
-4.8225070572976926e-05
-3.4446478980697995e-05
-2.6179324025330647e-05
-3.169076066224221e-05
-2.6179324025330647e-05
-1.240073243305171e-05
-6.889295796140132e-06
-1.5156450751507488e-05
-2.066788738841907e-05
-1.5156450751507488e-05
-1.377859159228559e-06
6.8892957961388014e-06
4.133577477683014e-06
-4.133577477684346e-06
1.3778591592272275e-06
1.7912169069961946e-05
3.444647898069667e-05
3.720219729915245e-05
3.169076066224089e-05
3.720219729915245e-05
5.373650720988717e-05
7.578225375753347e-05
8.129369039444505e-05
7.853797207598924e-05
8.129369039444505e-05
9.507228198672396e-05
0.00011436231021591448
0.00012814090180819342
0.00013089662012664922
0.00013365233844510492
0.00014743093003738393
0.0001694766765850302
0.0001832552681773092
0.0001832552681773092
0.00018049954985885336
0.00018601098649576498
0.00019978957808804387
0.00020805673304341124
0.0001970338597695881
0.0001832552681773092
0.000172232394903486
0.00017774383154039756
0.00017774383154039756
0.00016120952162966288
0.00013640805676356078
0.00011987374685282605
0.00011711802853437029
0.00011160659189745871
9.782800030517979e-05
7.02708171206219e-05
4.82250705729756e-05
4.271363393606403e-05
4.271363393606403e-05
3.720219729915245e-05
1.7912169069961946e-05
4.133577477683014e-06
4.133577477683014e-06
1.2400732433050376e-05
1.5156450751506162e-05
4.133577477683014e-06
-6.889295796140132e-06
-1.377859159228559e-06
1.5156450751506162e-05
2.3423605706873515e-05
1.5156450751506162e-05
6.8892957961388014e-06
1.2400732433050376e-05
2.8935042343785094e-05
4.271363393606403e-05
3.720219729915245e-05
4.271363393606403e-05
5.373650720988717e-05
6.751509880216611e-05
7.02708171206219e-05
6.475938048371032e-05
6.475938048371032e-05
7.578225375753347e-05
8.68051270313566e-05
8.68051270313566e-05
7.578225375753347e-05
7.02708171206219e-05
7.30265354390777e-05
7.853797207598924e-05
7.853797207598924e-05
6.475938048371032e-05
5.373650720988717e-05
5.098078889143139e-05
5.373650720988717e-05
5.373650720988717e-05
3.9957915617608246e-05
2.3423605706873515e-05
1.7912169069961946e-05
2.066788738841773e-05
2.3423605706873515e-05
1.5156450751506162e-05
-1.377859159228559e-06
-6.889295796140132e-06
-1.377859159228559e-06
4.133577477683014e-06
-4.133577477684346e-06
-1.7912169069963278e-05
-2.6179324025330647e-05
-2.066788738841907e-05
-1.240073243305171e-05
-1.7912169069963278e-05
-3.169076066224221e-05
-4.2713633936065354e-05
-2.8935042343786426e-05
-1.377859159228559e-06
1.2400732433050376e-05
4.133577477683014e-06
-6.889295796140132e-06
1.3778591592272275e-06
1.5156450751506162e-05
2.3423605706873515e-05
1.7912169069961946e-05
6.8892957961388014e-06
1.2400732433050376e-05
2.8935042343785094e-05
3.720219729915245e-05
2.8935042343785094e-05
9.64501411459459e-06
1.3778591592272275e-06
4.133577477683014e-06
4.133577477683014e-06
-6.889295796140132e-06
-3.169076066224221e-05
-5.3736507209888505e-05
-5.9247943846800084e-05
-5.3736507209888505e-05
-5.3736507209888505e-05
-6.475938048371164e-05
-7.027081712062322e-05
-6.751509880216745e-05
-5.6492225528344285e-05
-5.9247943846800084e-05
-7.027081712062322e-05
-7.302653543907902e-05
-6.200366216525588e-05
-5.3736507209888505e-05
-5.9247943846800084e-05
-7.027081712062322e-05
-6.751509880216745e-05
-5.098078889143272e-05
-1.7912169069963278e-05
6.475938048371032e-05
0.000263171099412527
0.0005304757763027383
0.000717864621957732
0.0007068417486839086
0.0005139414663920035
0.00017774383154039756
-0.0002686825360494398
-0.000720620340276189
-0.0009493449607080192
-0.0009300549324788287
-0.0008253376363775088
-0.0007068417486839102
-0.0005828344243533996
-0.00045331566338597764
-0.0003375754940108345
-0.0002521482261387052
-0.00019427814145113364
-0.00013089662012665053
-7.57822537575348e-05
-5.098078889143272e-05
-4.8225070572976926e-05
-5.3736507209888505e-05
-5.098078889143272e-05
-3.169076066224221e-05
-2.066788738841907e-05
-2.066788738841907e-05
-3.169076066224221e-05
-3.169076066224221e-05
-2.066788738841907e-05
-9.64501411459592e-06
-9.64501411459592e-06
-1.7912169069963278e-05
-1.7912169069963278e-05
-9.64501411459592e-06
6.8892957961388014e-06
1.2400732433050376e-05
6.8892957961388014e-06
4.133577477683014e-06
1.5156450751506162e-05
3.169076066224089e-05
4.271363393606403e-05
3.9957915617608246e-05
3.9957915617608246e-05
4.82250705729756e-05
6.475938048371032e-05
7.578225375753347e-05
7.853797207598924e-05
7.853797207598924e-05
8.68051270313566e-05
0.00010885087357900291
0.00012814090180819342
0.00013640805676356078
0.00013640805676356078
0.00014743093003738393
0.0001832552681773092
0.00018876670481422076
0.0001832552681773092
0.00018601098649576498
0.00019978957808804387
0.00020805673304341124
0.00020530101472495543
0.00018601098649576498
0.0001694766765850302
0.00016396523994811866
0.00015845380331120705
0.00014467521171892812
0.00011711802853437029
8.956084534981241e-05
7.853797207598924e-05
7.853797207598924e-05
7.02708171206219e-05
5.098078889143139e-05
2.8935042343785094e-05
1.7912169069961946e-05
2.066788738841773e-05
1.7912169069961946e-05
4.133577477683014e-06
-1.5156450751507488e-05
-2.342360570687485e-05
-1.5156450751507488e-05
-9.64501411459592e-06
-1.240073243305171e-05
-2.342360570687485e-05
-2.8935042343786426e-05
-2.342360570687485e-05
-9.64501411459592e-06
-6.889295796140132e-06
-1.5156450751507488e-05
-1.7912169069963278e-05
-6.889295796140132e-06
1.2400732433050376e-05
1.7912169069961946e-05
1.2400732433050376e-05
9.64501411459459e-06
1.7912169069961946e-05
3.444647898069667e-05
4.271363393606403e-05
3.9957915617608246e-05
3.444647898069667e-05
3.720219729915245e-05
4.82250705729756e-05
5.649222552834297e-05
5.098078889143139e-05
4.271363393606403e-05
3.444647898069667e-05
3.9957915617608246e-05
4.546935225451981e-05
3.720219729915245e-05
2.3423605706873515e-05
1.7912169069961946e-05
2.066788738841773e-05
2.6179324025329308e-05
2.066788738841773e-05
4.133577477683014e-06
-6.889295796140132e-06
-6.889295796140132e-06
1.3778591592272275e-06
1.3778591592272275e-06
-1.240073243305171e-05
-2.6179324025330647e-05
-2.066788738841907e-05
-1.7912169069963278e-05
-2.6179324025330647e-05
-3.995791561760957e-05
-3.995791561760957e-05
-2.8935042343786426e-05
-2.342360570687485e-05
-3.169076066224221e-05
-4.5469352254521147e-05
-4.8225070572976926e-05
-3.995791561760957e-05
-3.169076066224221e-05
-3.4446478980697995e-05
-4.5469352254521147e-05
-5.3736507209888505e-05
-5.098078889143272e-05
-3.995791561760957e-05
-4.2713633936065354e-05
-5.6492225528344285e-05
-6.200366216525588e-05
-5.3736507209888505e-05
-4.2713633936065354e-05
-4.2713633936065354e-05
-5.098078889143272e-05
-5.9247943846800084e-05
-5.6492225528344285e-05
-4.5469352254521147e-05
-3.995791561760957e-05
-5.098078889143272e-05
-5.9247943846800084e-05
-5.098078889143272e-05
-2.8935042343786426e-05
-9.64501411459592e-06
-9.64501411459592e-06
-1.240073243305171e-05
-1.240073243305171e-05
-6.889295796140132e-06
6.8892957961388014e-06
1.2400732433050376e-05
1.3778591592272275e-06
1.3778591592272275e-06
1.2400732433050376e-05
2.3423605706873515e-05
2.066788738841773e-05
1.3778591592272275e-06
-1.5156450751507488e-05
-1.5156450751507488e-05
-6.889295796140132e-06
-1.240073243305171e-05
-3.720219729915378e-05
-6.751509880216745e-05
-7.57822537575348e-05
-6.475938048371164e-05
-5.9247943846800084e-05
-6.475938048371164e-05
-7.57822537575348e-05
-7.85379720759906e-05
-6.751509880216745e-05
-6.200366216525588e-05
-6.751509880216745e-05
-7.57822537575348e-05
-7.85379720759906e-05
-7.027081712062322e-05
-5.9247943846800084e-05
-7.302653543907902e-05
-7.57822537575348e-05
-5.6492225528344285e-05
1.2400732433050376e-05
0.0001832552681773092
0.0004533156633859763
0.0006737731288624392
0.000701330312046997
0.0005580329594872961
0.0002824611276417174
-0.00013089662012665053
-0.0005993687342641343
-0.0009107649042496381
-0.0009410778057526519
-0.0008336047913328761
-0.0007123531853208215
-0.000591101579308767
-0.0004615828183413449
-0.0003375754940108345
-0.00023836963454642628
-0.00017223239490348733
-0.00012538518348973897
-8.956084534981374e-05
-6.475938048371164e-05
-4.2713633936065354e-05
-3.995791561760957e-05
-4.8225070572976926e-05
-4.8225070572976926e-05
-3.720219729915378e-05
-2.342360570687485e-05
-2.342360570687485e-05
-3.169076066224221e-05
-3.4446478980697995e-05
-2.342360570687485e-05
-1.240073243305171e-05
-6.889295796140132e-06
-1.5156450751507488e-05
-2.066788738841907e-05
-1.240073243305171e-05
1.3778591592272275e-06
1.2400732433050376e-05
9.64501411459459e-06
4.133577477683014e-06
6.8892957961388014e-06
2.3423605706873515e-05
3.720219729915245e-05
3.720219729915245e-05
3.169076066224089e-05
3.444647898069667e-05
5.373650720988717e-05
7.30265354390777e-05
7.853797207598924e-05
7.578225375753347e-05
7.853797207598924e-05
9.507228198672396e-05
0.00011436231021591448
0.0001253851834897376
0.00012814090180819342
0.00013089662012664922
0.00014191949340047234
0.00016396523994811866
0.00017498811322194178
0.00017774383154039756
0.00017498811322194178
0.00017774383154039756
0.00019152242313267648
0.0001832552681773092
0.00016672095826657444
0.00015845380331120705
0.00015294236667429551
0.00014743093003738393
0.00013089662012664922
0.00010609515526054714
8.956084534981241e-05
8.404940871290084e-05
8.129369039444505e-05
7.02708171206219e-05
4.82250705729756e-05
3.720219729915245e-05
3.720219729915245e-05
3.9957915617608246e-05
3.169076066224089e-05
1.5156450751506162e-05
4.133577477683014e-06
4.133577477683014e-06
1.2400732433050376e-05
1.2400732433050376e-05
1.3778591592272275e-06
-9.64501411459592e-06
-9.64501411459592e-06
-1.377859159228559e-06
1.3778591592272275e-06
-4.133577477684346e-06
-1.240073243305171e-05
-1.240073243305171e-05
1.3778591592272275e-06
9.64501411459459e-06
6.8892957961388014e-06
-1.377859159228559e-06
-1.377859159228559e-06
1.2400732433050376e-05
2.066788738841773e-05
2.066788738841773e-05
1.5156450751506162e-05
1.7912169069961946e-05
2.8935042343785094e-05
3.720219729915245e-05
3.9957915617608246e-05
3.169076066224089e-05
2.6179324025329308e-05
3.169076066224089e-05
4.546935225451981e-05
4.546935225451981e-05
3.444647898069667e-05
2.3423605706873515e-05
2.3423605706873515e-05
3.169076066224089e-05
3.169076066224089e-05
1.5156450751506162e-05
4.133577477683014e-06
4.133577477683014e-06
1.5156450751506162e-05
1.7912169069961946e-05
4.133577477683014e-06
-9.64501411459592e-06
-1.5156450751507488e-05
-9.64501411459592e-06
-6.889295796140132e-06
-1.5156450751507488e-05
-2.342360570687485e-05
-1.7912169069963278e-05
1.7912169069961946e-05
1.5156450751506162e-05
6.8892957961388014e-06
6.8892957961388014e-06
1.5156450751506162e-05
2.3423605706873515e-05
2.8935042343785094e-05
2.3423605706873515e-05
2.066788738841773e-05
2.3423605706873515e-05
3.169076066224089e-05
2.8935042343785094e-05
1.2400732433050376e-05
-1.377859159228559e-06
-6.889295796140132e-06
-1.377859159228559e-06
-6.889295796140132e-06
-2.8935042343786426e-05
-5.6492225528344285e-05
-7.027081712062322e-05
-6.475938048371164e-05
-5.9247943846800084e-05
-5.9247943846800084e-05
-6.751509880216745e-05
-7.027081712062322e-05
-6.475938048371164e-05
-5.6492225528344285e-05
-5.9247943846800084e-05
-7.027081712062322e-05
-7.57822537575348e-05
-7.027081712062322e-05
-5.6492225528344285e-05
-5.6492225528344285e-05
-6.200366216525588e-05
-6.751509880216745e-05
-5.6492225528344285e-05
-1.240073243305171e-05
0.00011160659189745871
0.000340331212329289
0.0005745672693980309
0.000679284565499351
0.0005966130159456772
0.0003485983672846564
-3.720219729915378e-05
-0.0005332314946211955
-0.0009548563973449309
-0.0011064209048599993
-0.001070596566720074
-0.0009355663691157402
-0.000795024734874495
-0.0006489716639963384
-0.00048087284657053543
-0.00031828546578164407
-0.00021356816968032413
-0.00015294236667429682
-0.00010333943694209268
-6.200366216525588e-05
-3.4446478980697995e-05
-2.342360570687485e-05
-2.8935042343786426e-05
-3.4446478980697995e-05
-2.342360570687485e-05
-9.64501411459592e-06
-4.133577477684346e-06
-9.64501411459592e-06
-9.64501411459592e-06
1.3778591592272275e-06
9.64501411459459e-06
4.133577477683014e-06
-1.377859159228559e-06
6.8892957961388014e-06
1.7912169069961946e-05
2.8935042343785094e-05
2.8935042343785094e-05
2.3423605706873515e-05
2.3423605706873515e-05
3.9957915617608246e-05
5.9247943846798756e-05
6.475938048371032e-05
6.200366216525454e-05
7.02708171206219e-05
8.404940871290084e-05
0.00010333943694209132
0.00011711802853437029
0.00011711802853437029
0.00012262946517128183
0.00013640805676356078
0.00016120952162966288
0.00018049954985885336
0.00018601098649576498
0.00018876670481422076
0.00020254529640649968
0.00023010247959105753
0.0002493925078202481
0.0002549039444571596
0.00024663678950179223
0.00024663678950179223
0.0002576596627756154
0.00026041538109407124
0.0002493925078202481
0.00022734676127260172
0.0002135681696803228
0.00020805673304341124
0.00020254529640649968
0.00018601098649576498
0.00015845380331120705
0.00013640805676356078
0.0001253851834897376
0.00012262946517128183
0.00010609515526054714
7.853797207598924e-05
5.9247943846798756e-05
5.098078889143139e-05
5.373650720988717e-05
4.82250705729756e-05
3.169076066224089e-05
1.7912169069961946e-05
1.5156450751506162e-05
2.066788738841773e-05
2.066788738841773e-05
9.64501411459459e-06
-1.377859159228559e-06
-1.377859159228559e-06
1.2400732433050376e-05
2.066788738841773e-05
1.5156450751506162e-05
6.8892957961388014e-06
1.3778591592272275e-06
1.5156450751506162e-05
2.8935042343785094e-05
2.6179324025329308e-05
2.066788738841773e-05
2.8935042343785094e-05
4.271363393606403e-05
4.82250705729756e-05
4.271363393606403e-05
3.169076066224089e-05
3.169076066224089e-05
4.271363393606403e-05
4.271363393606403e-05
3.169076066224089e-05
2.066788738841773e-05
2.3423605706873515e-05
2.8935042343785094e-05
2.8935042343785094e-05
2.066788738841773e-05
4.133577477683014e-06
-4.133577477684346e-06
1.3778591592272275e-06
4.133577477683014e-06
-1.377859159228559e-06
-1.5156450751507488e-05
-2.8935042343786426e-05
-2.342360570687485e-05
-1.5156450751507488e-05
-2.066788738841907e-05
-3.720219729915378e-05
-4.2713633936065354e-05
-3.995791561760957e-05
-3.4446478980697995e-05
-3.4446478980697995e-05
-4.8225070572976926e-05
-5.9247943846800084e-05
-5.6492225528344285e-05
-4.8225070572976926e-05
-4.8225070572976926e-05
-5.3736507209888505e-05
-6.475938048371164e-05
-6.751509880216745e-05
-5.6492225528344285e-05
-4.8225070572976926e-05
-5.6492225528344285e-05
-6.751509880216745e-05
-6.751509880216745e-05
-5.9247943846800084e-05
-5.3736507209888505e-05
-5.9247943846800084e-05
-6.751509880216745e-05
-6.200366216525588e-05
-3.995791561760957e-05
-2.066788738841907e-05
-1.5156450751507488e-05
-2.342360570687485e-05
-2.8935042343786426e-05
-2.066788738841907e-05
-9.64501411459592e-06
-1.377859159228559e-06
-4.133577477684346e-06
-6.889295796140132e-06
1.3778591592272275e-06
1.2400732433050376e-05
9.64501411459459e-06
-6.889295796140132e-06
-2.066788738841907e-05
-2.6179324025330647e-05
-2.066788738841907e-05
-5.098078889143272e-05
-8.404940871290214e-05
-8.680512703135793e-05
-7.85379720759906e-05
-7.027081712062322e-05
-7.57822537575348e-05
-8.680512703135793e-05
-9.231656366826955e-05
-8.404940871290214e-05
-7.302653543907902e-05
-7.302653543907902e-05
-8.129369039444639e-05
-8.680512703135793e-05
-7.85379720759906e-05
-6.751509880216745e-05
-6.751509880216745e-05
-7.57822537575348e-05
-7.57822537575348e-05
-5.6492225528344285e-05
6.8892957961388014e-06
0.00015845380331120705
0.0003982012970168605
0.0006076358892195001
0.000679284565499351
0.0005745672693980309
0.00031001831082627527
-9.507228198672531e-05
-0.0005800787060349438
-0.0009245434958419172
-0.0009713907072556656
-0.0008721848477912571
-0.0007564446784161143
-0.0006517273823147941
-0.0005387429312581068
-0.00041749132524605234
-0.00030175115587090934
-0.0002218353246356915
-0.00016947667658503157
-0.00012538518348973897
-8.956084534981374e-05
-6.200366216525588e-05
-5.3736507209888505e-05
-5.9247943846800084e-05
-6.200366216525588e-05
-5.3736507209888505e-05
-3.995791561760957e-05
-3.169076066224221e-05
-3.4446478980697995e-05
-3.995791561760957e-05
-3.995791561760957e-05
-2.342360570687485e-05
-1.240073243305171e-05
-2.066788738841907e-05
-2.8935042343786426e-05
-2.6179324025330647e-05
-9.64501411459592e-06
4.133577477683014e-06
4.133577477683014e-06
-1.377859159228559e-06
4.133577477683014e-06
1.7912169069961946e-05
3.169076066224089e-05
3.444647898069667e-05
3.444647898069667e-05
3.720219729915245e-05
7.30265354390777e-05
8.129369039444505e-05
7.853797207598924e-05
8.404940871290084e-05
9.782800030517979e-05
0.00011987374685282605
0.00013089662012664922
0.00013089662012664922
0.00013365233844510492
0.00014743093003738393
0.00016672095826657444
0.0001832552681773092
0.00018601098649576498
0.0001832552681773092
0.00018601098649576498
0.0001970338597695881
0.00020254529640649968
0.00019152242313267648
0.00017498811322194178
0.00016672095826657444
0.0001694766765850302
0.00016672095826657444
0.00015294236667429551
0.00012814090180819342
0.00010609515526054714
0.00010058371862363556
9.507228198672396e-05
7.853797207598924e-05
5.373650720988717e-05
3.169076066224089e-05
2.8935042343785094e-05
3.169076066224089e-05
2.6179324025329308e-05
1.2400732433050376e-05
-4.133577477684346e-06
-1.377859159228559e-06
4.133577477683014e-06
9.64501411459459e-06
4.133577477683014e-06
-6.889295796140132e-06
-4.133577477684346e-06
9.64501411459459e-06
2.066788738841773e-05
2.066788738841773e-05
1.5156450751506162e-05
1.2400732433050376e-05
2.3423605706873515e-05
3.720219729915245e-05
3.9957915617608246e-05
3.444647898069667e-05
3.444647898069667e-05
4.271363393606403e-05
5.649222552834297e-05
6.200366216525454e-05
5.649222552834297e-05
5.098078889143139e-05
5.649222552834297e-05
6.751509880216611e-05
7.02708171206219e-05
5.9247943846798756e-05
4.271363393606403e-05
3.9957915617608246e-05
4.546935225451981e-05
4.546935225451981e-05
3.720219729915245e-05
2.066788738841773e-05
2.3423605706873515e-05
2.3423605706873515e-05
1.2400732433050376e-05
-1.377859159228559e-06
-9.64501411459592e-06
-4.133577477684346e-06
1.3778591592272275e-06
-6.889295796140132e-06
-2.342360570687485e-05
-2.342360570687485e-05
-4.133577477684346e-06
1.2400732433050376e-05
1.2400732433050376e-05
1.3778591592272275e-06
-1.377859159228559e-06
9.64501411459459e-06
1.7912169069961946e-05
2.6179324025329308e-05
1.7912169069961946e-05
1.2400732433050376e-05
1.7912169069961946e-05
2.6179324025329308e-05
2.6179324025329308e-05
1.2400732433050376e-05
-1.377859159228559e-06
-9.64501411459592e-06
-9.64501411459592e-06
-6.889295796140132e-06
-2.342360570687485e-05
-4.8225070572976926e-05
-7.027081712062322e-05
-7.302653543907902e-05
-6.751509880216745e-05
-6.751509880216745e-05
-7.57822537575348e-05
-8.129369039444639e-05
-7.57822537575348e-05
-6.751509880216745e-05
-7.027081712062322e-05
-8.129369039444639e-05
-8.680512703135793e-05
-7.85379720759906e-05
-7.027081712062322e-05
-6.475938048371164e-05
-7.57822537575348e-05
-8.404940871290214e-05
-8.129369039444639e-05
-5.6492225528344285e-05
1.3778591592272275e-06
0.00014467521171892812
0.00038993414206149314
0.0006241701991302349
0.000717864621957732
0.0006214144808117793
0.00034584264896620056
-7.57822537575348e-05
-0.0005718115510795765
-0.0009300549324788287
-0.0009906807354848563
-0.000899742030975815
-0.0007895132982375835
-0.0006820402838178078
-0.0005580329594872974
-0.0004312699168383313
-0.0002549039444571609
-0.00019703385976958942
-0.00013089662012665053
-8.680512703135793e-05
-6.751509880216745e-05
-6.751509880216745e-05
-6.751509880216745e-05
-6.200366216525588e-05
-4.5469352254521147e-05
-3.720219729915378e-05
-4.5469352254521147e-05
-5.098078889143272e-05
-4.8225070572976926e-05
-3.169076066224221e-05
-2.342360570687485e-05
-2.6179324025330647e-05
-3.4446478980697995e-05
-3.4446478980697995e-05
-2.342360570687485e-05
-1.240073243305171e-05
-9.64501411459592e-06
-1.240073243305171e-05
-9.64501411459592e-06
1.3778591592272275e-06
1.5156450751506162e-05
2.6179324025329308e-05
2.3423605706873515e-05
2.6179324025329308e-05
4.271363393606403e-05
6.200366216525454e-05
7.578225375753347e-05
7.578225375753347e-05
7.30265354390777e-05
8.404940871290084e-05
0.00010609515526054714
0.0001253851834897376
0.00013089662012664922
0.00013089662012664922
0.00014191949340047234
0.00016396523994811866
0.00018049954985885336
0.00017774383154039756
0.0001694766765850302
0.00016672095826657444
0.00017498811322194178
0.0001832552681773092
0.000172232394903486
0.00015294236667429551
0.00013640805676356078
0.00013089662012664922
0.00013089662012664922
0.00011711802853437029
8.956084534981241e-05
6.751509880216611e-05
5.649222552834297e-05
5.098078889143139e-05
4.271363393606403e-05
1.7912169069961946e-05
-4.133577477684346e-06
-1.5156450751507488e-05
-1.5156450751507488e-05
-1.7912169069963278e-05
-3.4446478980697995e-05
-4.8225070572976926e-05
-4.8225070572976926e-05
-4.2713633936065354e-05
-3.720219729915378e-05
-4.8225070572976926e-05
-4.8225070572976926e-05
-3.995791561760957e-05
-2.6179324025330647e-05
-2.066788738841907e-05
-2.342360570687485e-05
-2.6179324025330647e-05
-1.240073243305171e-05
6.8892957961388014e-06
1.2400732433050376e-05
4.133577477683014e-06
1.3778591592272275e-06
9.64501411459459e-06
2.6179324025329308e-05
3.169076066224089e-05
2.6179324025329308e-05
2.066788738841773e-05
2.6179324025329308e-05
3.444647898069667e-05
3.720219729915245e-05
2.6179324025329308e-05
1.5156450751506162e-05
1.2400732433050376e-05
2.066788738841773e-05
2.3423605706873515e-05
1.5156450751506162e-05
1.3778591592272275e-06
-9.64501411459592e-06
-4.133577477684346e-06
-1.377859159228559e-06
-6.889295796140132e-06
-2.066788738841907e-05
-3.169076066224221e-05
-2.6179324025330647e-05
-2.066788738841907e-05
-2.6179324025330647e-05
-4.2713633936065354e-05
-5.3736507209888505e-05
-5.098078889143272e-05
-4.2713633936065354e-05
-4.2713633936065354e-05
-5.3736507209888505e-05
-6.475938048371164e-05
-6.475938048371164e-05
-5.3736507209888505e-05
-5.098078889143272e-05
-6.475938048371164e-05
-7.57822537575348e-05
-7.302653543907902e-05
-6.200366216525588e-05
-5.3736507209888505e-05
-5.9247943846800084e-05
-7.302653543907902e-05
-7.302653543907902e-05
-5.6492225528344285e-05
-3.4446478980697995e-05
-2.6179324025330647e-05
-3.169076066224221e-05
-2.8935042343786426e-05
-1.7912169069963278e-05
-9.64501411459592e-06
-4.133577477684346e-06
-4.133577477684346e-06
-4.133577477684346e-06
2.066788738841773e-05
2.3423605706873515e-05
9.64501411459459e-06
-6.889295796140132e-06
-9.64501411459592e-06
-9.64501411459592e-06
-6.889295796140132e-06
-2.066788738841907e-05
-4.8225070572976926e-05
-6.475938048371164e-05
-6.200366216525588e-05
-6.200366216525588e-05
-7.027081712062322e-05
-8.129369039444639e-05
-8.129369039444639e-05
-7.302653543907902e-05
-6.475938048371164e-05
-7.027081712062322e-05
-8.129369039444639e-05
-8.404940871290214e-05
-7.302653543907902e-05
-6.200366216525588e-05
-6.200366216525588e-05
-7.027081712062322e-05
-7.85379720759906e-05
-7.027081712062322e-05
-4.5469352254521147e-05
-1.377859159228559e-06
0.00011160659189745871
0.00035410980392156795
0.0006159030441748677
0.0007481775234607456
0.000687551720454718
0.0004450485084306089
5.373650720988717e-05
-0.00043678135347524285
-0.0008556505378805224
-0.0009879250171664002
-0.0009245434958419172
-0.0008088033264667742
-0.0006930631570916311
-0.0005635443961242091
-0.00043678135347524285
-0.0003293083390554673
-0.0002549039444571609
-0.00019152242313267784
-0.0001226294651712832
-7.85379720759906e-05
-6.200366216525588e-05
-5.9247943846800084e-05
-5.6492225528344285e-05
-4.5469352254521147e-05
-2.8935042343786426e-05
-2.066788738841907e-05
-2.8935042343786426e-05
-3.720219729915378e-05
-2.8935042343786426e-05
-1.5156450751507488e-05
-6.889295796140132e-06
-1.240073243305171e-05
-2.066788738841907e-05
-1.7912169069963278e-05
-6.889295796140132e-06
4.133577477683014e-06
1.3778591592272275e-06
-4.133577477684346e-06
9.64501411459459e-06
2.6179324025329308e-05
3.169076066224089e-05
2.8935042343785094e-05
2.8935042343785094e-05
4.546935225451981e-05
6.751509880216611e-05
7.578225375753347e-05
7.578225375753347e-05
7.853797207598924e-05
9.507228198672396e-05
0.00011711802853437029
0.00012814090180819342
0.00012814090180819342
0.00013089662012664922
0.00014467521171892812
0.00016120952162966288
0.00018049954985885336
0.00018049954985885336
0.00017774383154039756
0.00018601098649576498
0.00019427814145113231
0.00019978957808804387
0.00018876670481422076
0.00017498811322194178
0.00016396523994811866
0.00016396523994811866
0.00016396523994811866
0.00015018664835583973
0.0001253851834897376
0.00010609515526054714
0.00010058371862363556
0.00010058371862363556
8.68051270313566e-05
6.200366216525454e-05
4.271363393606403e-05
3.444647898069667e-05
3.720219729915245e-05
2.8935042343785094e-05
1.2400732433050376e-05
-1.377859159228559e-06
-4.133577477684346e-06
4.133577477683014e-06
6.8892957961388014e-06
-1.377859159228559e-06
-1.240073243305171e-05
-9.64501411459592e-06
1.3778591592272275e-06
9.64501411459459e-06
6.8892957961388014e-06
1.3778591592272275e-06
1.3778591592272275e-06
1.5156450751506162e-05
2.8935042343785094e-05
3.444647898069667e-05
3.444647898069667e-05
3.720219729915245e-05
4.546935225451981e-05
6.200366216525454e-05
6.475938048371032e-05
5.9247943846798756e-05
5.649222552834297e-05
6.475938048371032e-05
7.578225375753347e-05
7.02708171206219e-05
5.9247943846798756e-05
6.200366216525454e-05
6.751509880216611e-05
6.751509880216611e-05
5.649222552834297e-05
3.9957915617608246e-05
3.444647898069667e-05
3.9957915617608246e-05
4.271363393606403e-05
3.444647898069667e-05
1.7912169069961946e-05
9.64501411459459e-06
1.5156450751506162e-05
1.7912169069961946e-05
9.64501411459459e-06
4.133577477683014e-06
9.64501411459459e-06
2.6179324025329308e-05
3.9957915617608246e-05
3.9957915617608246e-05
3.720219729915245e-05
3.169076066224089e-05
3.720219729915245e-05
5.098078889143139e-05
5.373650720988717e-05
4.271363393606403e-05
3.720219729915245e-05
4.271363393606403e-05
4.546935225451981e-05
4.271363393606403e-05
2.6179324025329308e-05
1.2400732433050376e-05
6.8892957961388014e-06
9.64501411459459e-06
1.3778591592272275e-06
-2.342360570687485e-05
-5.3736507209888505e-05
-5.9247943846800084e-05
-5.3736507209888505e-05
-4.5469352254521147e-05
-5.098078889143272e-05
-6.200366216525588e-05
-6.475938048371164e-05
-5.6492225528344285e-05
-4.8225070572976926e-05
-5.098078889143272e-05
-6.475938048371164e-05
-7.027081712062322e-05
-6.475938048371164e-05
-5.9247943846800084e-05
-5.6492225528344285e-05
-6.475938048371164e-05
-7.027081712062322e-05
-5.9247943846800084e-05
-6.889295796140132e-06
0.00013365233844510492
0.00038717842374303736
0.000637948790722514
0.0007399103685053779
0.0006434602273594254
0.000392689860379949
-1.7912169069963278e-05
-0.0005414986495765627
-0.000976902143892577
-0.0010788637216754414
-0.0009438335240711076
-0.0008032918898298626
-0.0006572388189517057
-0.0004891400015259028
-0.00032655262073701135
-0.0002218353246356915
-0.0001584538033112084
-0.00010609515526054846
-6.475938048371164e-05
-3.720219729915378e-05
-2.342360570687485e-05
-2.8935042343786426e-05
-2.8935042343786426e-05
-1.7912169069963278e-05
-4.133577477684346e-06
1.3778591592272275e-06
-6.889295796140132e-06
-1.240073243305171e-05
-6.889295796140132e-06
6.8892957961388014e-06
1.7912169069961946e-05
1.2400732433050376e-05
4.133577477683014e-06
6.8892957961388014e-06
2.6179324025329308e-05
3.9957915617608246e-05
3.9957915617608246e-05
3.720219729915245e-05
3.720219729915245e-05
5.649222552834297e-05
7.578225375753347e-05
8.404940871290084e-05
8.129369039444505e-05
8.404940871290084e-05
0.00010609515526054714
0.0001253851834897376
0.00013365233844510492
0.00013365233844510492
0.00013640805676356078
0.0001556980849927513
0.00018049954985885336
0.0001970338597695881
0.00020530101472495543
0.0002135681696803228
0.00023010247959105753
0.00025214822613870384
0.000263171099412527
0.00026041538109407124
0.0002576596627756154
0.00026041538109407124
0.00026592681773098274
0.0002686825360494386
0.00025214822613870384
0.00023010247959105753
0.000210812451361867
0.00020254529640649968
0.0001970338597695881
0.00017774383154039756
0.00015018664835583973
0.00013365233844510492
0.00012262946517128183
0.00011436231021591448
0.00010333943694209132
7.853797207598924e-05
5.9247943846798756e-05
4.82250705729756e-05
3.9957915617608246e-05
2.3423605706873515e-05
1.2400732433050376e-05
6.8892957961388014e-06
1.2400732433050376e-05
1.7912169069961946e-05
9.64501411459459e-06
-4.133577477684346e-06
-4.133577477684346e-06
6.8892957961388014e-06
1.7912169069961946e-05
1.5156450751506162e-05
6.8892957961388014e-06
6.8892957961388014e-06
2.066788738841773e-05
3.444647898069667e-05
3.444647898069667e-05
2.8935042343785094e-05
2.8935042343785094e-05
3.9957915617608246e-05
5.373650720988717e-05
5.649222552834297e-05
4.82250705729756e-05
4.546935225451981e-05
5.373650720988717e-05
6.475938048371032e-05
6.751509880216611e-05
5.649222552834297e-05
4.546935225451981e-05
4.546935225451981e-05
5.649222552834297e-05
5.373650720988717e-05
3.9957915617608246e-05
2.3423605706873515e-05
1.7912169069961946e-05
2.3423605706873515e-05
2.6179324025329308e-05
1.7912169069961946e-05
4.133577477683014e-06
-1.377859159228559e-06
4.133577477683014e-06
1.2400732433050376e-05
1.3778591592272275e-06
-1.240073243305171e-05
-2.342360570687485e-05
-1.7912169069963278e-05
-1.240073243305171e-05
-1.5156450751507488e-05
-2.6179324025330647e-05
-3.720219729915378e-05
-3.720219729915378e-05
-2.8935042343786426e-05
-2.342360570687485e-05
-3.4446478980697995e-05
-4.2713633936065354e-05
-4.2713633936065354e-05
-3.169076066224221e-05
-2.8935042343786426e-05
-3.4446478980697995e-05
-4.8225070572976926e-05
-5.098078889143272e-05
-4.2713633936065354e-05
-3.4446478980697995e-05
-3.169076066224221e-05
-2.066788738841907e-05
-6.889295796140132e-06
6.8892957961388014e-06
9.64501411459459e-06
-1.377859159228559e-06
-4.133577477684346e-06
9.64501411459459e-06
2.8935042343785094e-05
3.169076066224089e-05
2.3423605706873515e-05
2.066788738841773e-05
2.6179324025329308e-05
3.169076066224089e-05
2.8935042343785094e-05
1.5156450751506162e-05
-1.377859159228559e-06
-1.377859159228559e-06
-6.889295796140132e-06
-2.066788738841907e-05
-4.2713633936065354e-05
-5.9247943846800084e-05
-6.200366216525588e-05
-5.098078889143272e-05
-4.2713633936065354e-05
-4.8225070572976926e-05
-6.200366216525588e-05
-6.475938048371164e-05
-5.3736507209888505e-05
-4.2713633936065354e-05
-4.2713633936065354e-05
-5.3736507209888505e-05
-5.6492225528344285e-05
-4.8225070572976926e-05
-3.169076066224221e-05
-3.169076066224221e-05
-3.995791561760957e-05
-2.8935042343786426e-05
5.373650720988717e-05
0.0002686825360494386
0.0005552772411688404
0.0007261317769130989
0.0006985745937285414
0.0005194529030289152
0.0002190796063172344
-0.0002108124513618684
-0.0006737731288624405
-0.0009383220874341961
-0.0009272992141603728
-0.0008005361715114068
-0.000668261692225529
-0.0005387429312581068
-0.0004285141985198755
-0.00032379690241855563
-0.00023010247959105888
-0.000150186648355841
-9.507228198672531e-05
-7.027081712062322e-05
-5.9247943846800084e-05
-4.2713633936065354e-05
-2.6179324025330647e-05
-2.342360570687485e-05
-3.169076066224221e-05
-3.4446478980697995e-05
-2.342360570687485e-05
-1.240073243305171e-05
-1.240073243305171e-05
-1.7912169069963278e-05
-1.240073243305171e-05
-1.377859159228559e-06
4.133577477683014e-06
1.3778591592272275e-06
-4.133577477684346e-06
-4.133577477684346e-06
1.2400732433050376e-05
2.3423605706873515e-05
2.066788738841773e-05
1.5156450751506162e-05
2.066788738841773e-05
3.9957915617608246e-05
5.649222552834297e-05
5.649222552834297e-05
5.373650720988717e-05
5.649222552834297e-05
7.02708171206219e-05
9.23165636682682e-05
0.00010058371862363556
9.782800030517979e-05
0.00010333943694209132
0.00011711802853437029
0.00013916377508201656
0.00015018664835583973
0.00015018664835583973
0.00015294236667429551
0.00016672095826657444
0.00018601098649576498
0.00019427814145113231
0.00019427814145113231
0.0001832552681773092
0.00018049954985885336
0.0001832552681773092
0.0001832552681773092
0.00016672095826657444
0.00014743093003738393
0.00013089662012664922
0.00012814090180819342
0.0001253851834897376
0.00011436231021591448
9.23165636682682e-05
7.30265354390777e-05
7.30265354390777e-05
7.578225375753347e-05
6.751509880216611e-05
4.82250705729756e-05
3.169076066224089e-05
3.169076066224089e-05
3.9957915617608246e-05
3.720219729915245e-05
2.6179324025329308e-05
1.2400732433050376e-05
1.2400732433050376e-05
2.3423605706873515e-05
2.6179324025329308e-05
1.5156450751506162e-05
1.3778591592272275e-06
1.3778591592272275e-06
1.5156450751506162e-05
2.3423605706873515e-05
1.7912169069961946e-05
9.64501411459459e-06
1.2400732433050376e-05
3.720219729915245e-05
3.720219729915245e-05
2.3423605706873515e-05
2.3423605706873515e-05
3.720219729915245e-05
4.82250705729756e-05
5.373650720988717e-05
4.82250705729756e-05
4.271363393606403e-05
4.82250705729756e-05
6.200366216525454e-05
6.475938048371032e-05
5.9247943846798756e-05
4.82250705729756e-05
4.82250705729756e-05
5.9247943846798756e-05
5.9247943846798756e-05
4.546935225451981e-05
2.8935042343785094e-05
2.3423605706873515e-05
2.8935042343785094e-05
3.444647898069667e-05
2.066788738841773e-05
6.8892957961388014e-06
-1.377859159228559e-06
4.133577477683014e-06
9.64501411459459e-06
1.3778591592272275e-06
-9.64501411459592e-06
-1.5156450751507488e-05
-4.133577477684346e-06
2.066788738841773e-05
3.169076066224089e-05
2.066788738841773e-05
1.2400732433050376e-05
2.066788738841773e-05
3.720219729915245e-05
3.444647898069667e-05
2.3423605706873515e-05
1.5156450751506162e-05
2.6179324025329308e-05
4.271363393606403e-05
4.546935225451981e-05
3.444647898069667e-05
2.066788738841773e-05
1.5156450751506162e-05
2.066788738841773e-05
2.066788738841773e-05
4.133577477683014e-06
-2.066788738841907e-05
-3.995791561760957e-05
-4.5469352254521147e-05
-4.2713633936065354e-05
-4.5469352254521147e-05
-5.6492225528344285e-05
-6.475938048371164e-05
-5.9247943846800084e-05
-5.098078889143272e-05
-5.098078889143272e-05
-6.200366216525588e-05
-6.751509880216745e-05
-6.200366216525588e-05
-5.098078889143272e-05
-4.8225070572976926e-05
-5.3736507209888505e-05
-6.475938048371164e-05
-5.3736507209888505e-05
-3.720219729915378e-05
2.3423605706873515e-05
0.00020805673304341124
0.0004863842832074457
0.0006820402838178067
0.0006737731288624392
0.00048362856488898997
0.00015845380331120705
-0.00029348400091554195
-0.0007729789883268486
-0.0010650851300831622
-0.0011257109330891897
-0.0010292607919432368
-0.0008694291294728014
-0.0006930631570916311
-0.0005139414663920051
-0.00035410980392156926
-0.00024388107118333775
-0.00016672095826657574
-0.00010058371862363688
-5.3736507209888505e-05
-3.4446478980697995e-05
-3.4446478980697995e-05
-3.4446478980697995e-05
-2.6179324025330647e-05
-1.240073243305171e-05
-6.889295796140132e-06
-9.64501411459592e-06
-1.5156450751507488e-05
-1.240073243305171e-05
1.3778591592272275e-06
9.64501411459459e-06
6.8892957961388014e-06
-1.377859159228559e-06
-1.377859159228559e-06
1.2400732433050376e-05
2.6179324025329308e-05
2.6179324025329308e-05
2.066788738841773e-05
2.3423605706873515e-05
3.444647898069667e-05
5.098078889143139e-05
5.9247943846798756e-05
5.649222552834297e-05
5.649222552834297e-05
7.578225375753347e-05
9.507228198672396e-05
0.00010885087357900291
0.00010885087357900291
0.00010885087357900291
0.00012262946517128183
0.00014467521171892812
0.00015845380331120705
0.00016396523994811866
0.0001694766765850302
0.00018876670481422076
0.0002135681696803228
0.00023285819790951333
0.0002383696345464249
0.00023285819790951333
0.00024112535286488067
0.0002549039444571596
0.000263171099412527
0.0002576596627756154
0.00023010247959105753
0.00022734676127260172
0.00022459104295414594
0.00020530101472495543
0.00017774383154039756
0.0001556980849927513
0.00014743093003738393
0.00014191949340047234
0.00012814090180819342
0.00010609515526054714
8.68051270313566e-05
8.129369039444505e-05
8.129369039444505e-05
7.578225375753347e-05
5.9247943846798756e-05
4.271363393606403e-05
4.271363393606403e-05
5.098078889143139e-05
5.373650720988717e-05
3.9957915617608246e-05
2.6179324025329308e-05
2.066788738841773e-05
2.6179324025329308e-05
3.169076066224089e-05
2.6179324025329308e-05
1.5156450751506162e-05
9.64501411459459e-06
2.066788738841773e-05
3.444647898069667e-05
3.169076066224089e-05
2.3423605706873515e-05
2.066788738841773e-05
2.8935042343785094e-05
4.271363393606403e-05
4.546935225451981e-05
3.720219729915245e-05
3.169076066224089e-05
3.720219729915245e-05
5.098078889143139e-05
5.373650720988717e-05
3.720219729915245e-05
3.169076066224089e-05
3.444647898069667e-05
4.271363393606403e-05
4.546935225451981e-05
3.444647898069667e-05
2.066788738841773e-05
1.5156450751506162e-05
2.3423605706873515e-05
2.6179324025329308e-05
2.066788738841773e-05
6.8892957961388014e-06
-4.133577477684346e-06
-1.377859159228559e-06
4.133577477683014e-06
-1.377859159228559e-06
-1.5156450751507488e-05
-2.6179324025330647e-05
-2.066788738841907e-05
-9.64501411459592e-06
-1.240073243305171e-05
-2.342360570687485e-05
-3.169076066224221e-05
-2.8935042343786426e-05
-1.7912169069963278e-05
-3.169076066224221e-05
-3.995791561760957e-05
-3.720219729915378e-05
-2.8935042343786426e-05
-2.6179324025330647e-05
-2.8935042343786426e-05
-4.2713633936065354e-05
-4.5469352254521147e-05
-3.4446478980697995e-05
-2.6179324025330647e-05
-2.8935042343786426e-05
-4.2713633936065354e-05
-4.8225070572976926e-05
-3.720219729915378e-05
-2.8935042343786426e-05
-3.169076066224221e-05
-4.2713633936065354e-05
-3.995791561760957e-05
-2.066788738841907e-05
1.3778591592272275e-06
6.8892957961388014e-06
1.3778591592272275e-06
-4.133577477684346e-06
-1.377859159228559e-06
1.2400732433050376e-05
2.6179324025329308e-05
2.3423605706873515e-05
1.5156450751506162e-05
2.066788738841773e-05
3.169076066224089e-05
3.169076066224089e-05
2.066788738841773e-05
6.8892957961388014e-06
1.3778591592272275e-06
4.133577477683014e-06
1.3778591592272275e-06
-2.066788738841907e-05
-4.8225070572976926e-05
-5.6492225528344285e-05
-5.098078889143272e-05
-3.995791561760957e-05
-4.2713633936065354e-05
-5.6492225528344285e-05
-5.9247943846800084e-05
-5.3736507209888505e-05
-4.2713633936065354e-05
-3.995791561760957e-05
-5.098078889143272e-05
-5.9247943846800084e-05
-5.6492225528344285e-05
-4.5469352254521147e-05
-3.995791561760957e-05
-4.8225070572976926e-05
-5.3736507209888505e-05
-4.2713633936065354e-05
1.3778591592272275e-06
0.00012262946517128183
0.00034584264896620056
0.0005745672693980309
0.0006930631570916297
0.0006324373540856024
0.00041197988860913943
3.720219729915245e-05
-0.00043402563515678713
-0.0008363605096513318
-0.0008776962844281688
-0.0007592003967345699
-0.0006572388189517057
-0.0005442543678950186
-0.00041749132524605234
-0.00030175115587090934
-0.0002190796063172357
-0.00016396523994811996
-0.00011436231021591582
-8.129369039444639e-05
-5.3736507209888505e-05
-4.2713633936065354e-05
-4.5469352254521147e-05
-5.098078889143272e-05
-4.2713633936065354e-05
-2.6179324025330647e-05
-1.7912169069963278e-05
-2.066788738841907e-05
-3.169076066224221e-05
-2.6179324025330647e-05
-1.5156450751507488e-05
-4.133577477684346e-06
-4.133577477684346e-06
-1.5156450751507488e-05
-1.5156450751507488e-05
-1.377859159228559e-06
1.2400732433050376e-05
1.7912169069961946e-05
9.64501411459459e-06
1.2400732433050376e-05
2.6179324025329308e-05
4.271363393606403e-05
5.098078889143139e-05
4.271363393606403e-05
3.9957915617608246e-05
5.373650720988717e-05
7.30265354390777e-05
8.68051270313566e-05
8.68051270313566e-05
8.68051270313566e-05
9.507228198672396e-05
0.00011436231021591448
0.00012814090180819342
0.00013089662012664922
0.00013089662012664922
0.00014467521171892812
0.00016396523994811866
0.00017774383154039756
0.00018049954985885336
0.00017498811322194178
0.00017774383154039756
0.00018876670481422076
0.0001970338597695881
0.00019152242313267648
0.00017498811322194178
0.00016672095826657444
0.00016672095826657444
0.00016672095826657444
0.0001556980849927513
0.00013365233844510492
0.00011436231021591448
0.00010609515526054714
0.00010333943694209132
8.956084534981241e-05
7.02708171206219e-05
5.098078889143139e-05
5.098078889143139e-05
4.82250705729756e-05
3.444647898069667e-05
2.066788738841773e-05
2.066788738841773e-05
3.169076066224089e-05
3.444647898069667e-05
3.169076066224089e-05
2.066788738841773e-05
1.7912169069961946e-05
2.6179324025329308e-05
3.720219729915245e-05
3.720219729915245e-05
3.169076066224089e-05
3.169076066224089e-05
3.9957915617608246e-05
5.373650720988717e-05
5.649222552834297e-05
5.098078889143139e-05
4.546935225451981e-05
5.649222552834297e-05
7.30265354390777e-05
7.578225375753347e-05
7.02708171206219e-05
6.475938048371032e-05
6.751509880216611e-05
7.853797207598924e-05
8.404940871290084e-05
7.30265354390777e-05
6.200366216525454e-05
5.649222552834297e-05
6.475938048371032e-05
6.751509880216611e-05
5.373650720988717e-05
4.271363393606403e-05
3.169076066224089e-05
3.444647898069667e-05
3.9957915617608246e-05
3.444647898069667e-05
1.5156450751506162e-05
4.133577477683014e-06
1.2400732433050376e-05
1.7912169069961946e-05
9.64501411459459e-06
-4.133577477684346e-06
-1.240073243305171e-05
-9.64501411459592e-06
-1.377859159228559e-06
1.3778591592272275e-06
-9.64501411459592e-06
-2.066788738841907e-05
-1.5156450751507488e-05
6.8892957961388014e-06
2.3423605706873515e-05
1.5156450751506162e-05
6.8892957961388014e-06
1.2400732433050376e-05
2.6179324025329308e-05
3.169076066224089e-05
3.169076066224089e-05
2.066788738841773e-05
2.6179324025329308e-05
3.720219729915245e-05
4.546935225451981e-05
3.9957915617608246e-05
1.2400732433050376e-05
1.5156450751506162e-05
1.7912169069961946e-05
1.2400732433050376e-05
-1.240073243305171e-05
-3.720219729915378e-05
-4.5469352254521147e-05
-4.2713633936065354e-05
-3.995791561760957e-05
-5.098078889143272e-05
-5.9247943846800084e-05
-5.6492225528344285e-05
-4.5469352254521147e-05
-4.2713633936065354e-05
-5.098078889143272e-05
-6.200366216525588e-05
-5.9247943846800084e-05
-4.5469352254521147e-05
-3.995791561760957e-05
-4.8225070572976926e-05
-6.200366216525588e-05
-5.9247943846800084e-05
-4.5469352254521147e-05
-2.6179324025330647e-05
9.64501411459459e-06
0.00011711802853437029
0.00034584264896620056
0.0006021244525825888
0.0007288874952315547
0.0006627502555886161
0.00041197988860913943
2.6179324025329308e-05
-0.00043953707179369863
-0.0008336047913328761
-0.000963123552300298
-0.000899742030975815
-0.0007867575799191276
-0.000668261692225529
-0.0005387429312581068
-0.000423002761882964
-0.0003210411841000998
-0.00024388107118333775
-0.0001777438315403989
-0.00010609515526054846
-6.200366216525588e-05
-5.098078889143272e-05
-5.3736507209888505e-05
-4.8225070572976926e-05
-3.169076066224221e-05
-1.7912169069963278e-05
-1.7912169069963278e-05
-2.6179324025330647e-05
-2.6179324025330647e-05
-1.7912169069963278e-05
-6.889295796140132e-06
-6.889295796140132e-06
-1.240073243305171e-05
-1.7912169069963278e-05
-6.889295796140132e-06
9.64501411459459e-06
1.5156450751506162e-05
9.64501411459459e-06
6.8892957961388014e-06
1.5156450751506162e-05
2.6179324025329308e-05
3.444647898069667e-05
3.444647898069667e-05
4.271363393606403e-05
5.9247943846798756e-05
7.578225375753347e-05
7.578225375753347e-05
7.578225375753347e-05
8.68051270313566e-05
0.00010333943694209132
0.00011711802853437029
0.00011987374685282605
0.00011711802853437029
0.0001253851834897376
0.00014743093003738393
0.00016672095826657444
0.000172232394903486
0.00016672095826657444
0.00016672095826657444
0.00017498811322194178
0.0001832552681773092
0.0001832552681773092
0.0001694766765850302
0.00015845380331120705
0.00015294236667429551
0.00015018664835583973
0.00014467521171892812
0.00012262946517128183
9.507228198672396e-05
8.129369039444505e-05
7.853797207598924e-05
6.751509880216611e-05
4.546935225451981e-05
2.3423605706873515e-05
9.64501411459459e-06
4.133577477683014e-06
-1.377859159228559e-06
-1.240073243305171e-05
-2.6179324025330647e-05
-3.720219729915378e-05
-2.8935042343786426e-05
-2.066788738841907e-05
-2.066788738841907e-05
-3.169076066224221e-05
-3.4446478980697995e-05
-2.342360570687485e-05
-9.64501411459592e-06
-1.377859159228559e-06
-6.889295796140132e-06
-6.889295796140132e-06
4.133577477683014e-06
2.6179324025329308e-05
3.720219729915245e-05
3.444647898069667e-05
3.169076066224089e-05
3.9957915617608246e-05
5.649222552834297e-05
6.475938048371032e-05
5.9247943846798756e-05
5.098078889143139e-05
4.82250705729756e-05
5.9247943846798756e-05
6.751509880216611e-05
6.200366216525454e-05
5.098078889143139e-05
4.271363393606403e-05
5.649222552834297e-05
4.82250705729756e-05
3.444647898069667e-05
2.3423605706873515e-05
2.3423605706873515e-05
3.169076066224089e-05
2.6179324025329308e-05
1.2400732433050376e-05
-1.377859159228559e-06
-4.133577477684346e-06
4.133577477683014e-06
4.133577477683014e-06
-1.240073243305171e-05
-2.342360570687485e-05
-2.066788738841907e-05
-1.5156450751507488e-05
-1.240073243305171e-05
-2.066788738841907e-05
-3.169076066224221e-05
-3.4446478980697995e-05
-2.6179324025330647e-05
-2.066788738841907e-05
-2.8935042343786426e-05
-3.995791561760957e-05
-4.5469352254521147e-05
-3.720219729915378e-05
-2.8935042343786426e-05
-3.169076066224221e-05
-4.8225070572976926e-05
-5.3736507209888505e-05
-4.5469352254521147e-05
-3.4446478980697995e-05
-3.720219729915378e-05
-4.8225070572976926e-05
-5.6492225528344285e-05
-5.3736507209888505e-05
-4.2713633936065354e-05
-3.995791561760957e-05
-4.8225070572976926e-05
-5.3736507209888505e-05
-5.3736507209888505e-05
-4.2713633936065354e-05
-3.720219729915378e-05
-4.2713633936065354e-05
-5.3736507209888505e-05
-4.5469352254521147e-05
-2.342360570687485e-05
-6.889295796140132e-06
-6.889295796140132e-06
-1.240073243305171e-05
-1.5156450751507488e-05
-4.133577477684346e-06
1.2400732433050376e-05
2.3423605706873515e-05
1.5156450751506162e-05
1.5156450751506162e-05
2.6179324025329308e-05
3.444647898069667e-05
2.8935042343785094e-05
6.8892957961388014e-06
-4.133577477684346e-06
-6.889295796140132e-06
-1.377859159228559e-06
-6.889295796140132e-06
-3.4446478980697995e-05
-5.9247943846800084e-05
-5.098078889143272e-05
-5.098078889143272e-05
-5.9247943846800084e-05
-7.027081712062322e-05
-6.751509880216745e-05
-5.6492225528344285e-05
-5.098078889143272e-05
-5.3736507209888505e-05
-6.751509880216745e-05
-7.027081712062322e-05
-5.9247943846800084e-05
-5.098078889143272e-05
-5.3736507209888505e-05
-6.475938048371164e-05
-6.475938048371164e-05
-3.995791561760957e-05
3.720219729915245e-05
0.0002190796063172344
0.0004781171282520784
0.0006710174105439835
0.0007123531853208202
0.0005800787060349425
0.0002824611276417174
-0.00017223239490348733
-0.0006710174105439848
-0.0009686349889372096
-0.0009713907072556656
-0.0008556505378805224
-0.000745421805142291
-0.0006351930724040594
-0.0005166971847104609
-0.00039268986037995033
-0.0002852168459601746
-0.00021632388799877996
-0.00016396523994811996
-0.00011436231021591582
-8.129369039444639e-05
-5.6492225528344285e-05
-5.098078889143272e-05
-5.6492225528344285e-05
-5.6492225528344285e-05
-4.2713633936065354e-05
-2.8935042343786426e-05
-2.342360570687485e-05
-2.8935042343786426e-05
-3.4446478980697995e-05
-2.6179324025330647e-05
-1.5156450751507488e-05
-1.240073243305171e-05
-1.7912169069963278e-05
-2.342360570687485e-05
-1.5156450751507488e-05
-1.377859159228559e-06
6.8892957961388014e-06
6.8892957961388014e-06
4.133577477683014e-06
9.64501411459459e-06
2.3423605706873515e-05
3.9957915617608246e-05
4.271363393606403e-05
3.720219729915245e-05
3.9957915617608246e-05
5.649222552834297e-05
7.30265354390777e-05
8.129369039444505e-05
8.68051270313566e-05
0.00010058371862363556
0.00011987374685282605
0.00012814090180819342
0.00012814090180819342
0.0001253851834897376
0.00013916377508201656
0.00016120952162966288
0.0001694766765850302
0.00016672095826657444
0.00016396523994811866
0.000172232394903486
0.00018049954985885336
0.0001832552681773092
0.00017498811322194178
0.00015845380331120705
0.00015294236667429551
0.00015294236667429551
0.00014743093003738393
0.00013089662012664922
0.00010885087357900291
9.23165636682682e-05
8.68051270313566e-05
8.404940871290084e-05
7.02708171206219e-05
4.546935225451981e-05
3.169076066224089e-05
3.169076066224089e-05
2.8935042343785094e-05
2.066788738841773e-05
4.133577477683014e-06
-4.133577477684346e-06
-1.377859159228559e-06
9.64501411459459e-06
1.2400732433050376e-05
1.3778591592272275e-06
-6.889295796140132e-06
-1.377859159228559e-06
1.2400732433050376e-05
2.066788738841773e-05
1.5156450751506162e-05
9.64501411459459e-06
2.066788738841773e-05
3.444647898069667e-05
4.82250705729756e-05
4.82250705729756e-05
4.271363393606403e-05
4.546935225451981e-05
5.9247943846798756e-05
7.02708171206219e-05
7.02708171206219e-05
6.200366216525454e-05
5.649222552834297e-05
6.751509880216611e-05
8.129369039444505e-05
7.578225375753347e-05
6.475938048371032e-05
5.649222552834297e-05
5.9247943846798756e-05
6.475938048371032e-05
6.475938048371032e-05
5.098078889143139e-05
3.720219729915245e-05
3.169076066224089e-05
3.444647898069667e-05
2.066788738841773e-05
4.133577477683014e-06
-4.133577477684346e-06
-1.377859159228559e-06
4.133577477683014e-06
-4.133577477684346e-06
-1.7912169069963278e-05
-2.342360570687485e-05
-2.066788738841907e-05
-1.5156450751507488e-05
-1.7912169069963278e-05
-2.342360570687485e-05
-1.240073243305171e-05
4.133577477683014e-06
1.7912169069961946e-05
1.5156450751506162e-05
6.8892957961388014e-06
1.3778591592272275e-06
9.64501411459459e-06
2.3423605706873515e-05
2.3423605706873515e-05
1.5156450751506162e-05
1.2400732433050376e-05
1.5156450751506162e-05
2.3423605706873515e-05
1.7912169069961946e-05
6.8892957961388014e-06
-1.240073243305171e-05
-1.7912169069963278e-05
-1.5156450751507488e-05
-2.342360570687485e-05
-4.8225070572976926e-05
-7.302653543907902e-05
-7.85379720759906e-05
-7.027081712062322e-05
-5.9247943846800084e-05
-5.6492225528344285e-05
-7.027081712062322e-05
-7.85379720759906e-05
-7.302653543907902e-05
-5.9247943846800084e-05
-5.9247943846800084e-05
-7.302653543907902e-05
-7.85379720759906e-05
-7.302653543907902e-05
-6.200366216525588e-05
-5.9247943846800084e-05
-6.751509880216745e-05
-6.751509880216745e-05
-4.2713633936065354e-05
5.098078889143139e-05
0.000263171099412527
0.0005359872129396498
0.0007095974670023644
0.0007095974670023644
0.0005442543678950173
0.0002218353246356902
-0.00024112535286488197
-0.0007343989318684678
-0.0009961921721217675
-0.0009686349889372096
-0.0008473833829251552
-0.0007261317769131007
-0.000615903044174869
-0.0005056743114366376
-0.00027694969100480727
-0.00020254529640650095
-0.00014467521171892948
-0.00010609515526054846
-8.129369039444639e-05
-5.9247943846800084e-05
-4.8225070572976926e-05
-5.3736507209888505e-05
-5.3736507209888505e-05
-4.8225070572976926e-05
-3.4446478980697995e-05
-2.6179324025330647e-05
-3.169076066224221e-05
-3.720219729915378e-05
-3.4446478980697995e-05
-2.066788738841907e-05
-9.64501411459592e-06
-9.64501411459592e-06
-2.066788738841907e-05
-2.066788738841907e-05
-6.889295796140132e-06
6.8892957961388014e-06
9.64501411459459e-06
4.133577477683014e-06
4.133577477683014e-06
2.066788738841773e-05
3.720219729915245e-05
4.546935225451981e-05
3.9957915617608246e-05
4.271363393606403e-05
5.649222552834297e-05
7.853797207598924e-05
8.956084534981241e-05
8.956084534981241e-05
9.23165636682682e-05
0.00010333943694209132
0.00012814090180819342
0.00014467521171892812
0.00013916377508201656
0.00013916377508201656
0.00015294236667429551
0.00017498811322194178
0.00018876670481422076
0.00018601098649576498
0.00017498811322194178
0.000172232394903486
0.00017498811322194178
0.00017774383154039756
0.00016396523994811866
0.00013916377508201656
0.00011987374685282605
0.00011987374685282605
0.00011160659189745871
9.23165636682682e-05
6.751509880216611e-05
4.546935225451981e-05
4.271363393606403e-05
4.271363393606403e-05
3.169076066224089e-05
9.64501411459459e-06
-9.64501411459592e-06
-1.5156450751507488e-05
-9.64501411459592e-06
-1.5156450751507488e-05
-2.8935042343786426e-05
-3.995791561760957e-05
-3.169076066224221e-05
-2.6179324025330647e-05
-2.8935042343786426e-05
-3.720219729915378e-05
-3.4446478980697995e-05
-2.342360570687485e-05
-6.889295796140132e-06
-4.133577477684346e-06
-9.64501411459592e-06
-9.64501411459592e-06
6.8892957961388014e-06
2.6179324025329308e-05
3.169076066224089e-05
2.066788738841773e-05
2.066788738841773e-05
3.444647898069667e-05
5.098078889143139e-05
5.649222552834297e-05
4.546935225451981e-05
3.720219729915245e-05
3.9957915617608246e-05
5.373650720988717e-05
5.649222552834297e-05
4.271363393606403e-05
2.6179324025329308e-05
2.6179324025329308e-05
3.169076066224089e-05
3.169076066224089e-05
1.7912169069961946e-05
4.133577477683014e-06
-4.133577477684346e-06
-1.377859159228559e-06
6.8892957961388014e-06
4.133577477683014e-06
-1.240073243305171e-05
-2.066788738841907e-05
-1.7912169069963278e-05
-9.64501411459592e-06
-1.5156450751507488e-05
-2.8935042343786426e-05
-3.720219729915378e-05
-3.720219729915378e-05
-2.6179324025330647e-05
-2.6179324025330647e-05
-3.4446478980697995e-05
-4.8225070572976926e-05
-4.2713633936065354e-05
-3.4446478980697995e-05
-3.169076066224221e-05
-4.2713633936065354e-05
-5.098078889143272e-05
-4.8225070572976926e-05
-3.720219729915378e-05
-3.4446478980697995e-05
-4.5469352254521147e-05
-5.6492225528344285e-05
-5.9247943846800084e-05
-4.2713633936065354e-05
-3.4446478980697995e-05
-3.995791561760957e-05
-5.3736507209888505e-05
-5.6492225528344285e-05
-3.995791561760957e-05
-1.5156450751507488e-05
-9.64501411459592e-06
-1.5156450751507488e-05
-4.133577477684346e-06
6.8892957961388014e-06
9.64501411459459e-06
9.64501411459459e-06
9.64501411459459e-06
1.5156450751506162e-05
2.8935042343785094e-05
3.444647898069667e-05
2.6179324025329308e-05
9.64501411459459e-06
6.8892957961388014e-06
9.64501411459459e-06
9.64501411459459e-06
-1.377859159228559e-06
-2.8935042343786426e-05
-5.098078889143272e-05
-5.3736507209888505e-05
-4.8225070572976926e-05
-5.098078889143272e-05
-6.200366216525588e-05
-6.200366216525588e-05
-5.3736507209888505e-05
-5.098078889143272e-05
-5.098078889143272e-05
-6.200366216525588e-05
-6.751509880216745e-05
-5.6492225528344285e-05
-4.5469352254521147e-05
-4.5469352254521147e-05
-5.3736507209888505e-05
-5.9247943846800084e-05
-5.3736507209888505e-05
-3.169076066224221e-05
1.7912169069961946e-05
0.0001556980849927513
0.00041197988860913943
0.0006599945372701603
0.0007454218051422897
0.0006296816357671465
0.00036788839551384685
-2.6179324025330647e-05
-0.0004946514381628143
-0.0008556505378805224
-0.0009438335240711076
-0.0008584062561989784
-0.0007426660868238351
-0.0006186587624933248
-0.00048362856488899143
-0.0003596212405584808
-0.0002604153810940725
-0.0001997895780880452
-0.00014467521171892948
-8.680512703135793e-05
-4.8225070572976926e-05
-3.4446478980697995e-05
-3.720219729915378e-05
-4.2713633936065354e-05
-3.169076066224221e-05
-1.5156450751507488e-05
-9.64501411459592e-06
-1.7912169069963278e-05
-2.6179324025330647e-05
-2.066788738841907e-05
-6.889295796140132e-06
-4.133577477684346e-06
-1.5156450751507488e-05
-1.240073243305171e-05
4.133577477683014e-06
1.7912169069961946e-05
1.5156450751506162e-05
6.8892957961388014e-06
9.64501411459459e-06
2.3423605706873515e-05
3.720219729915245e-05
3.9957915617608246e-05
3.720219729915245e-05
3.9957915617608246e-05
5.373650720988717e-05
7.02708171206219e-05
7.853797207598924e-05
7.578225375753347e-05
7.30265354390777e-05
8.68051270313566e-05
0.00010609515526054714
0.00011436231021591448
0.00011711802853437029
0.00011987374685282605
0.00013365233844510492
0.00015294236667429551
0.00016396523994811866
0.00016672095826657444
0.00016396523994811866
0.00016672095826657444
0.00018049954985885336
0.00018876670481422076
0.00018049954985885336
0.00015845380331120705
0.00014743093003738393
0.00014467521171892812
0.00014191949340047234
0.0001253851834897376
0.00010609515526054714
8.68051270313566e-05
8.129369039444505e-05
8.129369039444505e-05
7.30265354390777e-05
5.373650720988717e-05
3.720219729915245e-05
3.444647898069667e-05
3.720219729915245e-05
3.169076066224089e-05
1.5156450751506162e-05
1.3778591592272275e-06
1.3778591592272275e-06
9.64501411459459e-06
1.5156450751506162e-05
6.8892957961388014e-06
-4.133577477684346e-06
-4.133577477684346e-06
4.133577477683014e-06
1.2400732433050376e-05
6.8892957961388014e-06
-9.64501411459592e-06
-1.240073243305171e-05
1.3778591592272275e-06
1.5156450751506162e-05
1.2400732433050376e-05
4.133577477683014e-06
4.133577477683014e-06
3.169076066224089e-05
3.720219729915245e-05
3.169076066224089e-05
2.8935042343785094e-05
3.720219729915245e-05
5.098078889143139e-05
5.649222552834297e-05
4.82250705729756e-05
4.271363393606403e-05
4.271363393606403e-05
5.649222552834297e-05
5.9247943846798756e-05
4.546935225451981e-05
3.444647898069667e-05
3.444647898069667e-05
3.9957915617608246e-05
4.271363393606403e-05
2.3423605706873515e-05
9.64501411459459e-06
6.8892957961388014e-06
1.2400732433050376e-05
2.066788738841773e-05
1.2400732433050376e-05
-6.889295796140132e-06
-1.7912169069963278e-05
-1.240073243305171e-05
4.133577477683014e-06
1.5156450751506162e-05
1.2400732433050376e-05
4.133577477683014e-06
9.64501411459459e-06
2.6179324025329308e-05
3.169076066224089e-05
2.066788738841773e-05
1.5156450751506162e-05
2.066788738841773e-05
3.169076066224089e-05
3.9957915617608246e-05
2.8935042343785094e-05
1.2400732433050376e-05
6.8892957961388014e-06
1.2400732433050376e-05
1.5156450751506162e-05
1.3778591592272275e-06
-2.342360570687485e-05
-4.2713633936065354e-05
-5.098078889143272e-05
-5.3736507209888505e-05
-5.9247943846800084e-05
-7.57822537575348e-05
-7.85379720759906e-05
-6.751509880216745e-05
-5.9247943846800084e-05
-5.9247943846800084e-05
-6.751509880216745e-05
-7.302653543907902e-05
-6.751509880216745e-05
-5.6492225528344285e-05
-5.6492225528344285e-05
-6.475938048371164e-05
-7.302653543907902e-05
-6.751509880216745e-05
-5.6492225528344285e-05
-5.3736507209888505e-05
-3.995791561760957e-05
0.0002824611276417174
0.0005635443961242077
0.0007068417486839086
0.0006186587624933234
0.0003816669871061258
2.3423605706873515e-05
-0.00043678135347524285
-0.0008804520027466246
-0.0011091766231784547
-0.0011146880598153664
-0.0009824135805294888
-0.0008060476081483182
-0.0006351930724040594
-0.00046709425497825643
-0.00032655262073701135
-0.00022459104295414727
-0.00014467521171892948
-7.85379720759906e-05
-4.5469352254521147e-05
-3.720219729915378e-05
-3.720219729915378e-05
-3.169076066224221e-05
-1.5156450751507488e-05
-6.889295796140132e-06
-1.240073243305171e-05
-2.066788738841907e-05
-1.5156450751507488e-05
-1.377859159228559e-06
9.64501411459459e-06
4.133577477683014e-06
-1.377859159228559e-06
1.3778591592272275e-06
9.64501411459459e-06
2.066788738841773e-05
2.066788738841773e-05
1.2400732433050376e-05
1.5156450751506162e-05
3.169076066224089e-05
4.271363393606403e-05
4.546935225451981e-05
4.546935225451981e-05
4.82250705729756e-05
6.200366216525454e-05
8.129369039444505e-05
9.23165636682682e-05
8.956084534981241e-05
9.23165636682682e-05
0.00010609515526054714
0.00013089662012664922
0.00015294236667429551
0.0001556980849927513
0.00016120952162966288
0.00017774383154039756
0.00020254529640649968
0.0002190796063172344
0.00022734676127260172
0.00023010247959105753
0.00023561391622796914
0.00024663678950179223
0.0002576596627756154
0.0002549039444571596
0.0002383696345464249
0.00022734676127260172
0.00022459104295414594
0.0002218353246356902
0.00020254529640649968
0.00015018664835583973
0.00014467521171892812
0.00014191949340047234
0.00012814090180819342
0.00010333943694209132
8.404940871290084e-05
7.853797207598924e-05
7.853797207598924e-05
7.02708171206219e-05
5.373650720988717e-05
3.720219729915245e-05
3.169076066224089e-05
3.720219729915245e-05
3.9957915617608246e-05
3.169076066224089e-05
1.7912169069961946e-05
9.64501411459459e-06
1.5156450751506162e-05
2.066788738841773e-05
1.5156450751506162e-05
1.3778591592272275e-06
1.3778591592272275e-06
9.64501411459459e-06
2.066788738841773e-05
2.066788738841773e-05
9.64501411459459e-06
4.133577477683014e-06
9.64501411459459e-06
2.6179324025329308e-05
2.8935042343785094e-05
2.066788738841773e-05
1.5156450751506162e-05
2.066788738841773e-05
3.444647898069667e-05
3.720219729915245e-05
3.169076066224089e-05
1.7912169069961946e-05
1.7912169069961946e-05
2.8935042343785094e-05
3.720219729915245e-05
2.8935042343785094e-05
1.2400732433050376e-05
6.8892957961388014e-06
1.7912169069961946e-05
2.066788738841773e-05
9.64501411459459e-06
-4.133577477684346e-06
-1.240073243305171e-05
-6.889295796140132e-06
-1.377859159228559e-06
-9.64501411459592e-06
-2.342360570687485e-05
-3.169076066224221e-05
-2.6179324025330647e-05
-1.7912169069963278e-05
-2.066788738841907e-05
-3.4446478980697995e-05
-4.5469352254521147e-05
-4.2713633936065354e-05
-3.169076066224221e-05
-2.8935042343786426e-05
-3.720219729915378e-05
-4.8225070572976926e-05
-4.5469352254521147e-05
-3.995791561760957e-05
-3.995791561760957e-05
-5.6492225528344285e-05
-5.3736507209888505e-05
-4.2713633936065354e-05
-3.995791561760957e-05
-4.5469352254521147e-05
-5.6492225528344285e-05
-5.6492225528344285e-05
-3.995791561760957e-05
-1.5156450751507488e-05
-9.64501411459592e-06
-1.7912169069963278e-05
-1.5156450751507488e-05
-6.889295796140132e-06
1.3778591592272275e-06
6.8892957961388014e-06
4.133577477683014e-06
-1.377859159228559e-06
9.64501411459459e-06
2.6179324025329308e-05
2.6179324025329308e-05
9.64501411459459e-06
-4.133577477684346e-06
-6.889295796140132e-06
-1.377859159228559e-06
-1.377859159228559e-06
-2.342360570687485e-05
-5.6492225528344285e-05
-7.302653543907902e-05
-6.751509880216745e-05
-5.6492225528344285e-05
-6.200366216525588e-05
-7.57822537575348e-05
-7.85379720759906e-05
-7.027081712062322e-05
-5.9247943846800084e-05
-6.200366216525588e-05
-7.302653543907902e-05
-7.85379720759906e-05
-7.027081712062322e-05
-6.200366216525588e-05
-6.200366216525588e-05
-7.027081712062322e-05
-7.57822537575348e-05
-6.200366216525588e-05
-3.169076066224221e-05
4.82250705729756e-05
0.00023285819790951333
0.0004808728465705341
0.0006544831006332488
0.0006572388189517045
0.00048362856488898997
0.00016396523994811866
-0.00027970540932326305
-0.0007261317769131007
-0.000952100679026475
-0.0009245434958419172
-0.0008143147631036856
-0.0007040860303654542
-0.0005828344243533996
-0.0004560713817044334
-0.0003348197756923787
-0.00024112535286488197
-0.00018325526817731047
-0.0001336523384451063
-6.200366216525588e-05
-4.8225070572976926e-05
-5.098078889143272e-05
-5.3736507209888505e-05
-4.5469352254521147e-05
-2.6179324025330647e-05
-2.066788738841907e-05
-2.8935042343786426e-05
-3.720219729915378e-05
-3.169076066224221e-05
-1.5156450751507488e-05
-6.889295796140132e-06
-1.240073243305171e-05
-2.342360570687485e-05
-2.342360570687485e-05
-9.64501411459592e-06
1.3778591592272275e-06
1.3778591592272275e-06
-1.377859159228559e-06
-1.377859159228559e-06
9.64501411459459e-06
2.6179324025329308e-05
3.169076066224089e-05
2.6179324025329308e-05
2.8935042343785094e-05
4.271363393606403e-05
5.9247943846798756e-05
6.751509880216611e-05
6.475938048371032e-05
6.751509880216611e-05
8.129369039444505e-05
0.00010333943694209132
0.00011160659189745871
0.00010885087357900291
0.00010885087357900291
0.00012262946517128183
0.00014467521171892812
0.00016120952162966288
0.00015845380331120705
0.00015294236667429551
0.0001556980849927513
0.0001694766765850302
0.00017498811322194178
0.00016672095826657444
0.00015018664835583973
0.00013916377508201656
0.00014191949340047234
0.00013916377508201656
0.00012814090180819342
0.00010333943694209132
8.956084534981241e-05
8.68051270313566e-05
8.404940871290084e-05
7.02708171206219e-05
4.82250705729756e-05
2.8935042343785094e-05
2.6179324025329308e-05
2.8935042343785094e-05
2.6179324025329308e-05
1.2400732433050376e-05
1.3778591592272275e-06
1.3778591592272275e-06
9.64501411459459e-06
1.2400732433050376e-05
4.133577477683014e-06
-1.377859159228559e-06
9.64501411459459e-06
1.7912169069961946e-05
1.2400732433050376e-05
4.133577477683014e-06
1.3778591592272275e-06
1.5156450751506162e-05
2.6179324025329308e-05
3.169076066224089e-05
2.6179324025329308e-05
2.3423605706873515e-05
3.169076066224089e-05
4.271363393606403e-05
4.82250705729756e-05
3.720219729915245e-05
2.6179324025329308e-05
3.720219729915245e-05
4.82250705729756e-05
5.098078889143139e-05
4.546935225451981e-05
3.444647898069667e-05
3.169076066224089e-05
3.720219729915245e-05
4.271363393606403e-05
3.169076066224089e-05
1.5156450751506162e-05
9.64501411459459e-06
1.7912169069961946e-05
2.066788738841773e-05
9.64501411459459e-06
-6.889295796140132e-06
-1.5156450751507488e-05
-9.64501411459592e-06
-6.889295796140132e-06
-1.5156450751507488e-05
-2.8935042343786426e-05
-2.8935042343786426e-05
-6.889295796140132e-06
9.64501411459459e-06
9.64501411459459e-06
-4.133577477684346e-06
-6.889295796140132e-06
4.133577477683014e-06
1.5156450751506162e-05
1.7912169069961946e-05
9.64501411459459e-06
4.133577477683014e-06
1.2400732433050376e-05
2.3423605706873515e-05
2.6179324025329308e-05
9.64501411459459e-06
-9.64501411459592e-06
-1.5156450751507488e-05
-1.240073243305171e-05
-9.64501411459592e-06
-2.6179324025330647e-05
-5.3736507209888505e-05
-7.302653543907902e-05
-7.302653543907902e-05
-6.751509880216745e-05
-7.302653543907902e-05
-8.404940871290214e-05
-8.680512703135793e-05
-7.85379720759906e-05
-7.027081712062322e-05
-7.302653543907902e-05
-9.231656366826955e-05
-8.129369039444639e-05
-6.475938048371164e-05
-6.475938048371164e-05
-7.57822537575348e-05
-8.404940871290214e-05
-7.57822537575348e-05
-5.9247943846800084e-05
-1.5156450751507488e-05
0.00011436231021591448
0.0003485983672846564
0.0005828344243533982
0.000676528847180895
0.0005745672693980309
0.00030450687418936376
-0.00011160659189746003
-0.0006186587624933248
-0.0010099707637140464
-0.0011229552147707339
-0.0010843751583123526
-0.0009548563973449309
-0.0008088033264667742
-0.0006517273823147941
-0.00048087284657053543
-0.0003320640573739229
-0.00024112535286488197
-0.0001777438315403989
-0.0001171180285343716
-7.85379720759906e-05
-5.9247943846800084e-05
-5.6492225528344285e-05
-5.6492225528344285e-05
-4.8225070572976926e-05
-3.169076066224221e-05
-2.066788738841907e-05
-2.6179324025330647e-05
-2.8935042343786426e-05
-2.342360570687485e-05
-9.64501411459592e-06
-1.377859159228559e-06
-6.889295796140132e-06
-1.240073243305171e-05
-9.64501411459592e-06
1.3778591592272275e-06
1.2400732433050376e-05
1.5156450751506162e-05
9.64501411459459e-06
9.64501411459459e-06
2.3423605706873515e-05
4.271363393606403e-05
5.098078889143139e-05
4.82250705729756e-05
5.098078889143139e-05
6.751509880216611e-05
8.404940871290084e-05
9.782800030517979e-05
9.782800030517979e-05
0.00010058371862363556
0.00011436231021591448
0.00013365233844510492
0.00015294236667429551
0.00016120952162966288
0.00016120952162966288
0.000172232394903486
0.0001970338597695881
0.00022459104295414594
0.0002190796063172344
0.0002218353246356902
0.00023010247959105753
0.0002383696345464249
0.00023010247959105753
0.0002135681696803228
0.00019978957808804387
0.0001970338597695881
0.00019427814145113231
0.00017774383154039756
0.00015294236667429551
0.00013089662012664922
0.00011987374685282605
0.00011436231021591448
9.23165636682682e-05
6.751509880216611e-05
4.546935225451981e-05
3.444647898069667e-05
3.169076066224089e-05
2.8935042343785094e-05
1.5156450751506162e-05
1.3778591592272275e-06
1.3778591592272275e-06
1.2400732433050376e-05
1.5156450751506162e-05
6.8892957961388014e-06
-4.133577477684346e-06
-1.377859159228559e-06
1.2400732433050376e-05
2.6179324025329308e-05
3.169076066224089e-05
2.6179324025329308e-05
2.8935042343785094e-05
3.9957915617608246e-05
5.098078889143139e-05
5.373650720988717e-05
4.82250705729756e-05
4.82250705729756e-05
5.649222552834297e-05
6.751509880216611e-05
7.02708171206219e-05
5.9247943846798756e-05
5.373650720988717e-05
5.9247943846798756e-05
6.751509880216611e-05
6.751509880216611e-05
5.373650720988717e-05
3.9957915617608246e-05
3.720219729915245e-05
4.546935225451981e-05
4.271363393606403e-05
2.8935042343785094e-05
1.2400732433050376e-05
4.133577477683014e-06
9.64501411459459e-06
1.2400732433050376e-05
4.133577477683014e-06
-1.240073243305171e-05
-2.066788738841907e-05
-1.5156450751507488e-05
-9.64501411459592e-06
-1.5156450751507488e-05
-3.169076066224221e-05
-3.995791561760957e-05
-2.6179324025330647e-05
-2.6179324025330647e-05
-3.720219729915378e-05
-5.098078889143272e-05
-5.098078889143272e-05
-3.995791561760957e-05
-3.4446478980697995e-05
-4.5469352254521147e-05
-5.3736507209888505e-05
-5.098078889143272e-05
-3.995791561760957e-05
-3.995791561760957e-05
-4.8225070572976926e-05
-5.9247943846800084e-05
-5.9247943846800084e-05
-5.098078889143272e-05
-4.5469352254521147e-05
-4.8225070572976926e-05
-5.6492225528344285e-05
-4.5469352254521147e-05
-2.6179324025330647e-05
-9.64501411459592e-06
-6.889295796140132e-06
-1.240073243305171e-05
-1.7912169069963278e-05
-9.64501411459592e-06
6.8892957961388014e-06
1.7912169069961946e-05
1.5156450751506162e-05
1.5156450751506162e-05
2.066788738841773e-05
2.3423605706873515e-05
1.5156450751506162e-05
1.3778591592272275e-06
-1.240073243305171e-05
-1.5156450751507488e-05
-9.64501411459592e-06
-1.7912169069963278e-05
-4.5469352254521147e-05
-6.751509880216745e-05
-7.302653543907902e-05
-6.200366216525588e-05
-5.3736507209888505e-05
-6.200366216525588e-05
-7.57822537575348e-05
-7.85379720759906e-05
-6.751509880216745e-05
-5.9247943846800084e-05
-6.200366216525588e-05
-7.302653543907902e-05
-7.85379720759906e-05
-6.751509880216745e-05
-5.6492225528344285e-05
-5.3736507209888505e-05
-6.200366216525588e-05
-5.6492225528344285e-05
-2.066788738841907e-05
9.23165636682682e-05
0.0003127740291447311
0.0005580329594872961
0.0006985745937285414
0.000679284565499351
0.0004891400015259016
0.00013916377508201656
-0.0003458426489662019
-0.0009879250171664002
-0.0009272992141603728
-0.0008032918898298626
-0.0006958188754100868
-0.0005938572976272227
-0.00048087284657053543
-0.0003568655222400251
-0.0002521482261387052
-0.00018601098649576628
-0.0001391637750820179
-0.00010609515526054846
-7.57822537575348e-05
-5.098078889143272e-05
-3.995791561760957e-05
-4.8225070572976926e-05
-5.098078889143272e-05
-4.2713633936065354e-05
-2.6179324025330647e-05
-2.342360570687485e-05
-3.169076066224221e-05
-3.4446478980697995e-05
-2.6179324025330647e-05
-9.64501411459592e-06
-1.377859159228559e-06
-9.64501411459592e-06
-1.5156450751507488e-05
-1.240073243305171e-05
1.3778591592272275e-06
1.2400732433050376e-05
1.5156450751506162e-05
9.64501411459459e-06
9.64501411459459e-06
2.6179324025329308e-05
3.9957915617608246e-05
4.546935225451981e-05
3.9957915617608246e-05
4.271363393606403e-05
5.649222552834297e-05
7.578225375753347e-05
8.404940871290084e-05
8.129369039444505e-05
8.129369039444505e-05
9.23165636682682e-05
0.00011436231021591448
0.00012814090180819342
0.00012814090180819342
0.00012814090180819342
0.00014191949340047234
0.00016396523994811866
0.00017774383154039756
0.00017498811322194178
0.0001694766765850302
0.00017498811322194178
0.00018049954985885336
0.00018601098649576498
0.00017498811322194178
0.00015294236667429551
0.00014191949340047234
0.00013916377508201656
0.00013640805676356078
0.0001253851834897376
0.00010333943694209132
8.129369039444505e-05
7.578225375753347e-05
7.02708171206219e-05
5.649222552834297e-05
1.5156450751506162e-05
9.64501411459459e-06
1.5156450751506162e-05
9.64501411459459e-06
-1.377859159228559e-06
-9.64501411459592e-06
-6.889295796140132e-06
1.3778591592272275e-06
6.8892957961388014e-06
4.133577477683014e-06
-6.889295796140132e-06
-4.133577477684346e-06
6.8892957961388014e-06
2.066788738841773e-05
2.3423605706873515e-05
2.066788738841773e-05
2.3423605706873515e-05
3.720219729915245e-05
5.373650720988717e-05
5.9247943846798756e-05
5.373650720988717e-05
5.373650720988717e-05
6.475938048371032e-05
7.30265354390777e-05
7.30265354390777e-05
6.751509880216611e-05
5.9247943846798756e-05
6.751509880216611e-05
7.578225375753347e-05
7.578225375753347e-05
6.475938048371032e-05
5.373650720988717e-05
5.373650720988717e-05
5.9247943846798756e-05
5.649222552834297e-05
3.9957915617608246e-05
2.3423605706873515e-05
1.7912169069961946e-05
2.066788738841773e-05
2.6179324025329308e-05
1.5156450751506162e-05
1.3778591592272275e-06
-6.889295796140132e-06
1.3778591592272275e-06
1.2400732433050376e-05
1.7912169069961946e-05
1.5156450751506162e-05
1.5156450751506162e-05
1.7912169069961946e-05
3.444647898069667e-05
3.720219729915245e-05
2.3423605706873515e-05
1.7912169069961946e-05
2.6179324025329308e-05
3.720219729915245e-05
4.82250705729756e-05
3.720219729915245e-05
2.3423605706873515e-05
1.7912169069961946e-05
2.066788738841773e-05
1.7912169069961946e-05
6.8892957961388014e-06
-9.64501411459592e-06
-2.066788738841907e-05
-3.169076066224221e-05
-5.9247943846800084e-05
-7.302653543907902e-05
-7.57822537575348e-05
-6.751509880216745e-05
-5.9247943846800084e-05
-6.475938048371164e-05
-7.57822537575348e-05
-8.129369039444639e-05
-7.027081712062322e-05
-6.200366216525588e-05
-6.200366216525588e-05
-7.027081712062322e-05
-7.85379720759906e-05
-7.302653543907902e-05
-6.475938048371164e-05
-5.9247943846800084e-05
-5.9247943846800084e-05
-3.169076066224221e-05
9.507228198672396e-05
0.00035410980392156795
0.0006214144808117793
0.0007454218051422897
0.000679284565499351
0.0004533156633859763
8.404940871290084e-05
-0.0003982012970168618
-0.0008446276646066993
-0.0010072150453955906
-0.0009410778057526519
-0.0008088033264667742
-0.0006820402838178078
-0.0005663001144426648
-0.0004560713817044334
-0.0003513540856031135
-0.0002549039444571609
-0.0001777438315403989
-0.0001198737468528274
-9.231656366826955e-05
-7.85379720759906e-05
-5.9247943846800084e-05
-4.2713633936065354e-05
-3.4446478980697995e-05
-3.720219729915378e-05
-3.995791561760957e-05
-3.169076066224221e-05
-1.7912169069963278e-05
-9.64501411459592e-06
-1.5156450751507488e-05
-2.342360570687485e-05
-2.066788738841907e-05
-6.889295796140132e-06
4.133577477683014e-06
1.3778591592272275e-06
-9.64501411459592e-06
-9.64501411459592e-06
6.8892957961388014e-06
2.066788738841773e-05
2.3423605706873515e-05
1.7912169069961946e-05
2.066788738841773e-05
3.444647898069667e-05
5.373650720988717e-05
5.649222552834297e-05
5.373650720988717e-05
5.9247943846798756e-05
9.507228198672396e-05
0.00010885087357900291
0.00011160659189745871
0.00011436231021591448
0.00013365233844510492
0.0001556980849927513
0.000172232394903486
0.0001694766765850302
0.00016672095826657444
0.00017774383154039756
0.00019427814145113231
0.00020254529640649968
0.00018876670481422076
0.000172232394903486
0.00016396523994811866
0.00016120952162966288
0.00016120952162966288
0.00014467521171892812
0.00011987374685282605
0.00010058371862363556
9.23165636682682e-05
8.956084534981241e-05
7.30265354390777e-05
4.82250705729756e-05
2.8935042343785094e-05
2.6179324025329308e-05
2.3423605706873515e-05
1.2400732433050376e-05
-9.64501411459592e-06
-2.6179324025330647e-05
-2.6179324025330647e-05
-2.066788738841907e-05
-2.066788738841907e-05
-2.8935042343786426e-05
-3.720219729915378e-05
-3.720219729915378e-05
-2.6179324025330647e-05
-1.5156450751507488e-05
-1.7912169069963278e-05
-2.6179324025330647e-05
-2.066788738841907e-05
-4.133577477684346e-06
1.2400732433050376e-05
1.2400732433050376e-05
6.8892957961388014e-06
9.64501411459459e-06
2.3423605706873515e-05
3.9957915617608246e-05
4.546935225451981e-05
3.720219729915245e-05
3.444647898069667e-05
4.271363393606403e-05
5.373650720988717e-05
5.9247943846798756e-05
4.82250705729756e-05
3.9957915617608246e-05
4.271363393606403e-05
5.098078889143139e-05
5.098078889143139e-05
3.9957915617608246e-05
2.6179324025329308e-05
2.6179324025329308e-05
3.169076066224089e-05
3.444647898069667e-05
2.3423605706873515e-05
-1.377859159228559e-06
4.133577477683014e-06
4.133577477683014e-06
-4.133577477684346e-06
-1.5156450751507488e-05
-2.342360570687485e-05
-2.066788738841907e-05
-1.240073243305171e-05
-1.5156450751507488e-05
-2.6179324025330647e-05
-3.4446478980697995e-05
-2.8935042343786426e-05
-2.066788738841907e-05
-2.342360570687485e-05
-3.169076066224221e-05
-3.995791561760957e-05
-3.4446478980697995e-05
-2.8935042343786426e-05
-2.6179324025330647e-05
-3.720219729915378e-05
-5.098078889143272e-05
-4.5469352254521147e-05
-3.169076066224221e-05
-2.8935042343786426e-05
-3.720219729915378e-05
-4.8225070572976926e-05
-4.8225070572976926e-05
-3.4446478980697995e-05
-1.7912169069963278e-05
-9.64501411459592e-06
-1.240073243305171e-05
-9.64501411459592e-06
6.8892957961388014e-06
1.7912169069961946e-05
1.7912169069961946e-05
1.2400732433050376e-05
1.5156450751506162e-05
2.8935042343785094e-05
4.546935225451981e-05
4.546935225451981e-05
3.169076066224089e-05
1.5156450751506162e-05
1.5156450751506162e-05
2.066788738841773e-05
1.7912169069961946e-05
9.64501411459459e-06
-9.64501411459592e-06
-3.169076066224221e-05
-3.720219729915378e-05
-3.4446478980697995e-05
-4.2713633936065354e-05
-5.3736507209888505e-05
-5.9247943846800084e-05
-5.098078889143272e-05
-3.995791561760957e-05
-4.2713633936065354e-05
-5.6492225528344285e-05
-6.200366216525588e-05
-5.098078889143272e-05
-3.995791561760957e-05
-4.2713633936065354e-05
-5.3736507209888505e-05
-5.6492225528344285e-05
-5.098078889143272e-05
-3.4446478980697995e-05
-1.240073243305171e-05
0.00025214822613870384
0.0005387429312581057
0.0007454218051422897
0.0007509332417792012
0.0005745672693980309
0.00025214822613870384
-0.00018876670481422206
-0.0006517273823147941
-0.0009217877775234612
-0.0009245434958419172
-0.0008253376363775088
-0.0007068417486839102
-0.0005718115510795765
-0.00044504850843061025
-0.0003348197756923787
-0.00024939250782024937
-0.00018049954985885472
-0.00011436231021591582
-6.200366216525588e-05
-4.2713633936065354e-05
-4.8225070572976926e-05
-4.5469352254521147e-05
-3.169076066224221e-05
-2.066788738841907e-05
-1.7912169069963278e-05
-2.066788738841907e-05
-2.342360570687485e-05
-1.5156450751507488e-05
-6.889295796140132e-06
1.3778591592272275e-06
-4.133577477684346e-06
-1.240073243305171e-05
-6.889295796140132e-06
9.64501411459459e-06
2.066788738841773e-05
1.5156450751506162e-05
6.8892957961388014e-06
1.2400732433050376e-05
2.8935042343785094e-05
4.546935225451981e-05
4.271363393606403e-05
3.9957915617608246e-05
4.271363393606403e-05
5.9247943846798756e-05
7.853797207598924e-05
8.129369039444505e-05
7.578225375753347e-05
7.853797207598924e-05
9.507228198672396e-05
0.00011160659189745871
0.00011987374685282605
0.00011987374685282605
0.00012262946517128183
0.00013916377508201656
0.00016120952162966288
0.00017498811322194178
0.00017498811322194178
0.000172232394903486
0.00018049954985885336
0.00019427814145113231
0.0001970338597695881
0.00018601098649576498
0.000172232394903486
0.00016396523994811866
0.00016396523994811866
0.00014191949340047234
0.00011987374685282605
0.00010333943694209132
9.782800030517979e-05
0.00010058371862363556
8.68051270313566e-05
6.200366216525454e-05
4.271363393606403e-05
3.9957915617608246e-05
4.271363393606403e-05
3.9957915617608246e-05
2.066788738841773e-05
9.64501411459459e-06
1.2400732433050376e-05
1.7912169069961946e-05
1.7912169069961946e-05
4.133577477683014e-06
-6.889295796140132e-06
-4.133577477684346e-06
9.64501411459459e-06
1.2400732433050376e-05
1.3778591592272275e-06
-9.64501411459592e-06
-6.889295796140132e-06
6.8892957961388014e-06
1.5156450751506162e-05
1.2400732433050376e-05
9.64501411459459e-06
1.5156450751506162e-05
3.169076066224089e-05
4.546935225451981e-05
4.546935225451981e-05
3.720219729915245e-05
3.720219729915245e-05
4.82250705729756e-05
6.200366216525454e-05
6.475938048371032e-05
5.649222552834297e-05
5.098078889143139e-05
5.373650720988717e-05
6.200366216525454e-05
6.475938048371032e-05
5.373650720988717e-05
4.271363393606403e-05
3.720219729915245e-05
4.546935225451981e-05
4.82250705729756e-05
3.720219729915245e-05
2.3423605706873515e-05
1.5156450751506162e-05
2.3423605706873515e-05
2.8935042343785094e-05
1.7912169069961946e-05
1.3778591592272275e-06
-1.377859159228559e-06
4.133577477683014e-06
1.2400732433050376e-05
1.5156450751506162e-05
1.7912169069961946e-05
2.066788738841773e-05
2.6179324025329308e-05
3.444647898069667e-05
3.9957915617608246e-05
3.444647898069667e-05
3.169076066224089e-05
4.82250705729756e-05
5.373650720988717e-05
5.098078889143139e-05
3.444647898069667e-05
3.169076066224089e-05
3.720219729915245e-05
3.9957915617608246e-05
2.6179324025329308e-05
6.8892957961388014e-06
-1.377859159228559e-06
-6.889295796140132e-06
-1.7912169069963278e-05
-3.720219729915378e-05
-5.6492225528344285e-05
-5.6492225528344285e-05
-4.8225070572976926e-05
-4.2713633936065354e-05
-4.2713633936065354e-05
-5.3736507209888505e-05
-5.9247943846800084e-05
-5.3736507209888505e-05
-4.5469352254521147e-05
-4.2713633936065354e-05
-5.098078889143272e-05
-5.6492225528344285e-05
-5.3736507209888505e-05
-4.5469352254521147e-05
-4.2713633936065354e-05
-5.098078889143272e-05
-4.5469352254521147e-05
1.5156450751506162e-05
0.00019978957808804387
0.00047536140993362247
0.000687551720454718
0.000717864621957732
0.0005663001144426635
0.0002824611276417174
-0.0001198737468528274
-0.000591101579308767
-0.0009135206225680943
-0.0009465892423895632
-0.0008336047913328761
-0.0006985745937285427
-0.0005745672693980323
-0.00045882710002288904
-0.0003458426489662019
-0.0002466367895017936
-0.00016672095826657574
-0.00010609515526054846
-7.57822537575348e-05
-6.200366216525588e-05
-4.5469352254521147e-05
-2.8935042343786426e-05
-2.066788738841907e-05
-2.6179324025330647e-05
-3.169076066224221e-05
-2.6179324025330647e-05
-1.240073243305171e-05
-6.889295796140132e-06
-1.5156450751507488e-05
-2.342360570687485e-05
-2.066788738841907e-05
-9.64501411459592e-06
-1.377859159228559e-06
-1.377859159228559e-06
-9.64501411459592e-06
4.133577477683014e-06
2.066788738841773e-05
2.3423605706873515e-05
1.5156450751506162e-05
2.3423605706873515e-05
3.720219729915245e-05
5.098078889143139e-05
5.9247943846798756e-05
5.9247943846798756e-05
6.200366216525454e-05
7.578225375753347e-05
9.507228198672396e-05
0.00010609515526054714
0.00010333943694209132
0.00010058371862363556
0.00011987374685282605
0.00014467521171892812
0.0001556980849927513
0.00016120952162966288
0.00016120952162966288
0.00016672095826657444
0.00018049954985885336
0.00019152242313267648
0.00018876670481422076
0.00017498811322194178
0.0001694766765850302
0.000172232394903486
0.00016672095826657444
0.00015018664835583973
0.0001253851834897376
0.00010885087357900291
0.00010333943694209132
9.782800030517979e-05
8.404940871290084e-05
5.9247943846798756e-05
3.720219729915245e-05
3.444647898069667e-05
3.720219729915245e-05
2.6179324025329308e-05
6.8892957961388014e-06
-6.889295796140132e-06
-6.889295796140132e-06
1.3778591592272275e-06
1.3778591592272275e-06
-9.64501411459592e-06
-2.066788738841907e-05
-2.066788738841907e-05
-1.5156450751507488e-05
-6.889295796140132e-06
-1.240073243305171e-05
-2.066788738841907e-05
-2.342360570687485e-05
-1.240073243305171e-05
1.3778591592272275e-06
-4.133577477684346e-06
-1.240073243305171e-05
-9.64501411459592e-06
4.133577477683014e-06
1.7912169069961946e-05
1.7912169069961946e-05
9.64501411459459e-06
4.133577477683014e-06
1.7912169069961946e-05
3.169076066224089e-05
3.444647898069667e-05
1.7912169069961946e-05
2.066788738841773e-05
3.169076066224089e-05
3.444647898069667e-05
2.6179324025329308e-05
1.5156450751506162e-05
1.2400732433050376e-05
2.066788738841773e-05
2.6179324025329308e-05
1.5156450751506162e-05
1.3778591592272275e-06
-6.889295796140132e-06
-4.133577477684346e-06
1.3778591592272275e-06
-1.377859159228559e-06
-1.7912169069963278e-05
-2.342360570687485e-05
-1.7912169069963278e-05
-1.240073243305171e-05
-1.5156450751507488e-05
-2.8935042343786426e-05
-3.720219729915378e-05
-3.169076066224221e-05
-2.066788738841907e-05
-2.066788738841907e-05
-3.169076066224221e-05
-4.2713633936065354e-05
-3.995791561760957e-05
-2.8935042343786426e-05
-2.342360570687485e-05
-3.169076066224221e-05
-4.2713633936065354e-05
-3.995791561760957e-05
-2.8935042343786426e-05
-2.342360570687485e-05
-2.8935042343786426e-05
-4.2713633936065354e-05
-4.2713633936065354e-05
-3.4446478980697995e-05
-2.6179324025330647e-05
-2.8935042343786426e-05
-4.2713633936065354e-05
-3.995791561760957e-05
-2.066788738841907e-05
4.133577477683014e-06
4.133577477683014e-06
-1.377859159228559e-06
-1.377859159228559e-06
4.133577477683014e-06
1.7912169069961946e-05
2.6179324025329308e-05
1.7912169069961946e-05
1.5156450751506162e-05
2.066788738841773e-05
3.169076066224089e-05
3.169076066224089e-05
1.7912169069961946e-05
4.133577477683014e-06
1.3778591592272275e-06
6.8892957961388014e-06
6.8892957961388014e-06
-1.5156450751507488e-05
-4.5469352254521147e-05
-5.9247943846800084e-05
-5.6492225528344285e-05
-5.098078889143272e-05
-6.475938048371164e-05
-6.751509880216745e-05
-6.200366216525588e-05
-5.098078889143272e-05
-5.3736507209888505e-05
-6.751509880216745e-05
-6.751509880216745e-05
-5.9247943846800084e-05
-4.8225070572976926e-05
-4.5469352254521147e-05
-5.9247943846800084e-05
-6.475938048371164e-05
-5.098078889143272e-05
4.133577477683014e-06
0.0001556980849927513
0.0004064684519722279
0.0006324373540856024
0.0006958188754100854
0.0005800787060349425
0.00033206405737392166
-6.475938048371164e-05
-0.0005414986495765627
-0.0008859634393835361
-0.0009438335240711076
-0.0008446276646066993
-0.0007261317769131007
-0.0006048801709010458
-0.00048087284657053543
-0.0003596212405584808
-0.0002521482261387052
-0.0001777438315403989
-0.00012814090180819475
-8.956084534981374e-05
-6.475938048371164e-05
-4.2713633936065354e-05
-3.4446478980697995e-05
-4.2713633936065354e-05
-4.5469352254521147e-05
-3.169076066224221e-05
-1.7912169069963278e-05
-1.240073243305171e-05
-2.066788738841907e-05
-2.6179324025330647e-05
-2.342360570687485e-05
-6.889295796140132e-06
-1.377859159228559e-06
-6.889295796140132e-06
-1.240073243305171e-05
-9.64501411459592e-06
4.133577477683014e-06
1.5156450751506162e-05
1.2400732433050376e-05
4.133577477683014e-06
9.64501411459459e-06
2.6179324025329308e-05
4.271363393606403e-05
4.82250705729756e-05
3.9957915617608246e-05
3.9957915617608246e-05
5.373650720988717e-05
7.02708171206219e-05
7.853797207598924e-05
7.578225375753347e-05
7.853797207598924e-05
0.00011160659189745871
0.00012814090180819342
0.00013089662012664922
0.00013089662012664922
0.00014191949340047234
0.00016120952162966288
0.000172232394903486
0.000172232394903486
0.00016672095826657444
0.00016672095826657444
0.00017774383154039756
0.0001832552681773092
0.00017498811322194178
0.00015845380331120705
0.00014467521171892812
0.00014743093003738393
0.00014743093003738393
0.00012814090180819342
0.00010333943694209132
8.68051270313566e-05
8.129369039444505e-05
8.129369039444505e-05
7.578225375753347e-05
5.649222552834297e-05
3.9957915617608246e-05
3.720219729915245e-05
4.271363393606403e-05
3.9957915617608246e-05
2.3423605706873515e-05
1.2400732433050376e-05
9.64501411459459e-06
2.066788738841773e-05
2.6179324025329308e-05
1.5156450751506162e-05
4.133577477683014e-06
1.3778591592272275e-06
1.2400732433050376e-05
1.7912169069961946e-05
1.2400732433050376e-05
4.133577477683014e-06
1.3778591592272275e-06
1.2400732433050376e-05
2.066788738841773e-05
2.066788738841773e-05
1.5156450751506162e-05
1.5156450751506162e-05
2.3423605706873515e-05
3.444647898069667e-05
4.271363393606403e-05
3.169076066224089e-05
2.6179324025329308e-05
3.444647898069667e-05
5.098078889143139e-05
5.649222552834297e-05
4.546935225451981e-05
3.720219729915245e-05
3.720219729915245e-05
5.373650720988717e-05
5.373650720988717e-05
4.271363393606403e-05
2.8935042343785094e-05
2.3423605706873515e-05
2.8935042343785094e-05
3.169076066224089e-05
2.066788738841773e-05
-4.133577477684346e-06
1.3778591592272275e-06
1.3778591592272275e-06
-4.133577477684346e-06
-2.066788738841907e-05
-2.6179324025330647e-05
-1.5156450751507488e-05
4.133577477683014e-06
1.7912169069961946e-05
9.64501411459459e-06
4.133577477683014e-06
1.2400732433050376e-05
2.6179324025329308e-05
3.169076066224089e-05
2.3423605706873515e-05
1.5156450751506162e-05
2.3423605706873515e-05
3.9957915617608246e-05
4.546935225451981e-05
3.169076066224089e-05
1.2400732433050376e-05
6.8892957961388014e-06
1.7912169069961946e-05
1.5156450751506162e-05
4.133577477683014e-06
-1.7912169069963278e-05
-3.995791561760957e-05
-5.098078889143272e-05
-4.8225070572976926e-05
-5.3736507209888505e-05
-6.475938048371164e-05
-7.302653543907902e-05
-6.475938048371164e-05
-5.3736507209888505e-05
-5.9247943846800084e-05
-7.027081712062322e-05
-8.129369039444639e-05
-7.302653543907902e-05
-5.9247943846800084e-05
-5.9247943846800084e-05
-6.751509880216745e-05
-7.57822537575348e-05
-7.027081712062322e-05
-5.3736507209888505e-05
-4.2713633936065354e-05
-1.5156450751507488e-05
0.00010333943694209132
0.00034584264896620056
0.0005911015793087656
0.0006958188754100854
0.0005883458609903097
0.00032655262073701005
-7.302653543907902e-05
-0.0005663001144426648
-0.0009658792706187539
-0.0011064209048599993
-0.0010761080033569854
-0.0009410778057526519
-0.0007867575799191276
-0.0006241701991302363
-0.0004615828183413449
-0.00032379690241855563
-0.00023010247959105888
-0.00015569808499275262
-8.956084534981374e-05
-4.8225070572976926e-05
-4.8225070572976926e-05
-3.995791561760957e-05
-2.066788738841907e-05
-9.64501411459592e-06
-1.240073243305171e-05
-1.7912169069963278e-05
-1.240073243305171e-05
-1.377859159228559e-06
6.8892957961388014e-06
4.133577477683014e-06
-1.377859159228559e-06
1.3778591592272275e-06
1.5156450751506162e-05
2.8935042343785094e-05
2.6179324025329308e-05
2.066788738841773e-05
2.3423605706873515e-05
3.444647898069667e-05
5.098078889143139e-05
5.649222552834297e-05
5.098078889143139e-05
5.098078889143139e-05
6.751509880216611e-05
8.68051270313566e-05
9.782800030517979e-05
9.507228198672396e-05
9.782800030517979e-05
0.00011711802853437029
0.00014191949340047234
0.00015845380331120705
0.00016120952162966288
0.00016396523994811866
0.00017774383154039756
0.00020254529640649968
0.0002190796063172344
0.0002190796063172344
0.0002190796063172344
0.00022734676127260172
0.00024388107118333642
0.00025214822613870384
0.00024663678950179223
0.00023285819790951333
0.00022459104295414594
0.00022459104295414594
0.0002218353246356902
0.00020530101472495543
0.00018049954985885336
0.00015845380331120705
0.00015018664835583973
0.00014467521171892812
0.00012814090180819342
0.00010333943694209132
7.853797207598924e-05
6.475938048371032e-05
6.200366216525454e-05
5.373650720988717e-05
3.444647898069667e-05
1.7912169069961946e-05
1.2400732433050376e-05
1.7912169069961946e-05
2.066788738841773e-05
1.5156450751506162e-05
6.8892957961388014e-06
6.8892957961388014e-06
1.7912169069961946e-05
2.6179324025329308e-05
1.7912169069961946e-05
2.066788738841773e-05
3.720219729915245e-05
4.82250705729756e-05
5.098078889143139e-05
4.271363393606403e-05
3.9957915617608246e-05
5.098078889143139e-05
6.200366216525454e-05
6.475938048371032e-05
5.649222552834297e-05
4.82250705729756e-05
5.373650720988717e-05
6.475938048371032e-05
6.751509880216611e-05
5.649222552834297e-05
4.271363393606403e-05
3.9957915617608246e-05
4.546935225451981e-05
4.82250705729756e-05
3.444647898069667e-05
2.3423605706873515e-05
1.5156450751506162e-05
2.066788738841773e-05
2.6179324025329308e-05
1.2400732433050376e-05
-4.133577477684346e-06
-1.240073243305171e-05
-6.889295796140132e-06
-4.133577477684346e-06
-9.64501411459592e-06
-2.342360570687485e-05
-3.169076066224221e-05
-2.6179324025330647e-05
-1.7912169069963278e-05
-2.342360570687485e-05
-3.720219729915378e-05
-4.8225070572976926e-05
-4.8225070572976926e-05
-3.720219729915378e-05
-3.4446478980697995e-05
-4.5469352254521147e-05
-5.6492225528344285e-05
-5.6492225528344285e-05
-4.5469352254521147e-05
-3.995791561760957e-05
-4.5469352254521147e-05
-5.3736507209888505e-05
-5.6492225528344285e-05
-4.8225070572976926e-05
-4.2713633936065354e-05
-4.8225070572976926e-05
-5.6492225528344285e-05
-5.9247943846800084e-05
-5.3736507209888505e-05
-4.5469352254521147e-05
-4.8225070572976926e-05
-5.6492225528344285e-05
-5.3736507209888505e-05
-3.4446478980697995e-05
-1.240073243305171e-05
-6.889295796140132e-06
-1.240073243305171e-05
-1.7912169069963278e-05
1.3778591592272275e-06
1.5156450751506162e-05
9.64501411459459e-06
4.133577477683014e-06
9.64501411459459e-06
1.7912169069961946e-05
1.7912169069961946e-05
4.133577477683014e-06
-9.64501411459592e-06
-1.5156450751507488e-05
-9.64501411459592e-06
-1.240073243305171e-05
-3.995791561760957e-05
-6.475938048371164e-05
-7.027081712062322e-05
-5.9247943846800084e-05
-4.8225070572976926e-05
-5.3736507209888505e-05
-6.751509880216745e-05
-7.302653543907902e-05
-6.751509880216745e-05
-5.3736507209888505e-05
-5.3736507209888505e-05
-6.475938048371164e-05
-7.302653543907902e-05
-7.027081712062322e-05
-5.9247943846800084e-05
-5.3736507209888505e-05
-5.9247943846800084e-05
-5.3736507209888505e-05
-2.6179324025330647e-05
6.475938048371032e-05
0.00026592681773098274
0.0005166971847104594
0.0006737731288624392
0.0006710174105439835
0.0005001628747997245
0.00017498811322194178
-0.0002824611276417188
-0.0007536889600976582
-0.000976902143892577
-0.0009383220874341961
-0.0008225819180590531
-0.0007068417486839102
-0.00060212445258259
-0.0004891400015259028
-0.000370644113832304
-0.0002604153810940725
-0.00018876670481422206
-0.0001391637750820179
-0.00010333943694209268
-7.57822537575348e-05
-5.3736507209888505e-05
-3.995791561760957e-05
-4.2713633936065354e-05
-4.5469352254521147e-05
-3.995791561760957e-05
-2.8935042343786426e-05
-2.066788738841907e-05
-2.342360570687485e-05
-2.8935042343786426e-05
-2.6179324025330647e-05
-1.7912169069963278e-05
-6.889295796140132e-06
-6.889295796140132e-06
-1.7912169069963278e-05
-6.889295796140132e-06
6.8892957961388014e-06
9.64501411459459e-06
6.8892957961388014e-06
9.64501411459459e-06
2.066788738841773e-05
3.720219729915245e-05
4.546935225451981e-05
4.271363393606403e-05
4.271363393606403e-05
5.649222552834297e-05
7.853797207598924e-05
8.956084534981241e-05
8.68051270313566e-05
8.956084534981241e-05
0.00010058371862363556
0.00011987374685282605
0.00013365233844510492
0.00013640805676356078
0.00013640805676356078
0.00014467521171892812
0.00016120952162966288
0.00017498811322194178
0.00017498811322194178
0.000172232394903486
0.000172232394903486
0.00018049954985885336
0.00019152242313267648
0.00018876670481422076
0.0001694766765850302
0.00015294236667429551
0.00015018664835583973
0.00014743093003738393
0.00013640805676356078
0.00011160659189745871
8.956084534981241e-05
7.578225375753347e-05
7.02708171206219e-05
5.649222552834297e-05
3.9957915617608246e-05
2.066788738841773e-05
1.5156450751506162e-05
2.066788738841773e-05
1.7912169069961946e-05
6.8892957961388014e-06
-4.133577477684346e-06
-9.64501411459592e-06
1.3778591592272275e-06
1.2400732433050376e-05
9.64501411459459e-06
1.3778591592272275e-06
4.133577477683014e-06
1.7912169069961946e-05
3.169076066224089e-05
3.444647898069667e-05
2.6179324025329308e-05
3.169076066224089e-05
5.098078889143139e-05
6.751509880216611e-05
7.30265354390777e-05
7.02708171206219e-05
6.751509880216611e-05
7.853797207598924e-05
9.23165636682682e-05
9.23165636682682e-05
8.404940871290084e-05
8.404940871290084e-05
9.23165636682682e-05
9.507228198672396e-05
8.404940871290084e-05
7.02708171206219e-05
6.475938048371032e-05
7.30265354390777e-05
7.578225375753347e-05
6.200366216525454e-05
4.546935225451981e-05
3.444647898069667e-05
3.9957915617608246e-05
3.9957915617608246e-05
3.169076066224089e-05
1.5156450751506162e-05
4.133577477683014e-06
6.8892957961388014e-06
1.2400732433050376e-05
9.64501411459459e-06
-1.377859159228559e-06
-4.133577477684346e-06
1.7912169069961946e-05
3.444647898069667e-05
3.444647898069667e-05
2.6179324025329308e-05
2.066788738841773e-05
2.6179324025329308e-05
3.9957915617608246e-05
4.82250705729756e-05
3.720219729915245e-05
2.6179324025329308e-05
3.169076066224089e-05
4.546935225451981e-05
4.546935225451981e-05
3.169076066224089e-05
1.5156450751506162e-05
4.133577477683014e-06
4.133577477683014e-06
6.8892957961388014e-06
-9.64501411459592e-06
-3.720219729915378e-05
-5.6492225528344285e-05
-5.6492225528344285e-05
-4.8225070572976926e-05
-4.8225070572976926e-05
-6.200366216525588e-05
-7.027081712062322e-05
-6.200366216525588e-05
-4.8225070572976926e-05
-4.8225070572976926e-05
-5.9247943846800084e-05
-6.751509880216745e-05
-6.200366216525588e-05
-5.098078889143272e-05
-4.8225070572976926e-05
-5.3736507209888505e-05
-6.200366216525588e-05
-5.6492225528344285e-05
-2.8935042343786426e-05
4.82250705729756e-05
0.00023010247959105753
0.0004946514381628131
0.0007040860303654528
0.0007509332417792012
0.0002989954375524522
-0.0001584538033112084
-0.0006599945372701616
-0.000952100679026475
-0.000952100679026475
-0.0008473833829251552
-0.0007371546501869236
-0.0006269259174486923
-0.0005056743114366376
-0.00037891126878767127
-0.00027419397268635144
-0.0002108124513618684
-0.00015569808499275262
-0.00010609515526054846
-6.751509880216745e-05
-4.5469352254521147e-05
-4.2713633936065354e-05
-4.8225070572976926e-05
-3.995791561760957e-05
-2.342360570687485e-05
-1.5156450751507488e-05
-1.7912169069963278e-05
-2.8935042343786426e-05
-2.6179324025330647e-05
-1.5156450751507488e-05
-4.133577477684346e-06
-4.133577477684346e-06
-1.240073243305171e-05
-1.5156450751507488e-05
-1.377859159228559e-06
9.64501411459459e-06
1.7912169069961946e-05
1.2400732433050376e-05
1.2400732433050376e-05
2.3423605706873515e-05
3.9957915617608246e-05
5.098078889143139e-05
5.098078889143139e-05
4.82250705729756e-05
5.9247943846798756e-05
7.853797207598924e-05
9.23165636682682e-05
9.507228198672396e-05
9.782800030517979e-05
0.00011160659189745871
0.00013089662012664922
0.00014467521171892812
0.00014743093003738393
0.00014743093003738393
0.0001556980849927513
0.00017498811322194178
0.00019427814145113231
0.00019427814145113231
0.00018601098649576498
0.0001832552681773092
0.00018601098649576498
0.00019152242313267648
0.0001832552681773092
0.00016120952162966288
0.00014467521171892812
0.00013365233844510492
0.00013089662012664922
0.00011711802853437029
9.507228198672396e-05
7.02708171206219e-05
5.9247943846798756e-05
5.098078889143139e-05
3.169076066224089e-05
1.2400732433050376e-05
4.133577477683014e-06
6.8892957961388014e-06
4.133577477683014e-06
-1.240073243305171e-05
-2.8935042343786426e-05
-3.169076066224221e-05
-1.7912169069963278e-05
-9.64501411459592e-06
-9.64501411459592e-06
-1.7912169069963278e-05
-2.066788738841907e-05
-9.64501411459592e-06
4.133577477683014e-06
9.64501411459459e-06
6.8892957961388014e-06
4.133577477683014e-06
1.7912169069961946e-05
3.720219729915245e-05
4.271363393606403e-05
4.271363393606403e-05
3.720219729915245e-05
4.546935225451981e-05
6.200366216525454e-05
7.02708171206219e-05
6.475938048371032e-05
5.649222552834297e-05
6.200366216525454e-05
7.30265354390777e-05
7.30265354390777e-05
6.200366216525454e-05
4.82250705729756e-05
4.271363393606403e-05
4.82250705729756e-05
5.373650720988717e-05
4.82250705729756e-05
2.8935042343785094e-05
1.7912169069961946e-05
2.3423605706873515e-05
2.8935042343785094e-05
