-6.475938048371164e-05
-4.2713633936065354e-05
-3.720219729915378e-05
-4.8225070572976926e-05
-6.475938048371164e-05
-7.57822537575348e-05
-7.302653543907902e-05
-6.751509880216745e-05
-7.57822537575348e-05
-7.85379720759906e-05
-7.85379720759906e-05
-7.302653543907902e-05
-6.751509880216745e-05
-7.027081712062322e-05
-7.027081712062322e-05
-6.475938048371164e-05
-5.9247943846800084e-05
-5.6492225528344285e-05
-5.3736507209888505e-05
-5.098078889143272e-05
-4.8225070572976926e-05
-4.2713633936065354e-05
-3.4446478980697995e-05
-3.4446478980697995e-05
-3.4446478980697995e-05
-3.169076066224221e-05
-2.066788738841907e-05
-9.64501411459592e-06
-4.133577477684346e-06
-4.133577477684346e-06
-4.133577477684346e-06
-1.377859159228559e-06
6.8892957961388014e-06
1.5156450751506162e-05
1.2400732433050376e-05
1.5156450751506162e-05
2.066788738841773e-05
2.3423605706873515e-05
2.3423605706873515e-05
2.8935042343785094e-05
3.720219729915245e-05
4.82250705729756e-05
5.649222552834297e-05
5.9247943846798756e-05
6.200366216525454e-05
6.751509880216611e-05
8.129369039444505e-05
9.23165636682682e-05
9.507228198672396e-05
0.00010058371862363556
0.00010885087357900291
0.00011987374685282605
0.00013365233844510492
0.00013916377508201656
0.00013640805676356078
0.00013916377508201656
0.00014743093003738393
0.0001556980849927513
0.00016396523994811866
0.0001694766765850302
0.0001694766765850302
0.000172232394903486
0.00018049954985885336
0.00018049954985885336
0.000172232394903486
0.0001694766765850302
0.00016396523994811866
0.00016672095826657444
0.000172232394903486
0.000172232394903486
0.00016396523994811866
0.00016120952162966288
0.00015845380331120705
0.00014467521171892812
0.00012814090180819342
0.00010058371862363556
7.30265354390777e-05
5.373650720988717e-05
3.9957915617608246e-05
1.5156450751506162e-05
-9.64501411459592e-06
-3.169076066224221e-05
-4.5469352254521147e-05
-5.3736507209888505e-05
-6.475938048371164e-05
-8.404940871290214e-05
-9.78280003051811e-05
-0.00010885087357900426
-0.00010609515526054846
-0.00010333943694209268
-0.00010885087357900426
-0.0001171180285343716
-0.0001198737468528274
-0.0001198737468528274
-0.00011436231021591582
-0.00011436231021591582
-0.0001171180285343716
-0.0001198737468528274
-0.00011436231021591582
-0.00010885087357900426
-0.00011436231021591582
-0.00011160659189746003
-0.00010609515526054846
-0.00010058371862363688
-0.00010058371862363688
-0.00010058371862363688
-9.78280003051811e-05
-9.78280003051811e-05
-9.231656366826955e-05
-9.231656366826955e-05
-9.507228198672531e-05
-9.507228198672531e-05
-9.507228198672531e-05
-9.231656366826955e-05
-9.231656366826955e-05
-9.507228198672531e-05
-9.231656366826955e-05
-8.404940871290214e-05
-8.129369039444639e-05
-8.404940871290214e-05
-8.956084534981374e-05
-9.231656366826955e-05
-9.507228198672531e-05
-9.507228198672531e-05
-9.231656366826955e-05
-9.507228198672531e-05
-0.00010058371862363688
-0.00010609515526054846
-0.00010333943694209268
-0.00010058371862363688
-0.00010058371862363688
-9.78280003051811e-05
-9.78280003051811e-05
-9.507228198672531e-05
-9.231656366826955e-05
-9.507228198672531e-05
-0.00010333943694209268
-0.00010609515526054846
-0.00010333943694209268
-9.78280003051811e-05
-0.00010058371862363688
-0.00010058371862363688
-0.00010609515526054846
-0.00010885087357900426
-0.00010333943694209268
-0.00010058371862363688
-0.00010333943694209268
-0.00010609515526054846
-0.00010885087357900426
-0.00010333943694209268
-0.00010058371862363688
-0.00010333943694209268
-0.00010885087357900426
-0.00010609515526054846
-0.00010333943694209268
-9.507228198672531e-05
-9.507228198672531e-05
-9.78280003051811e-05
-0.00010058371862363688
-0.00010058371862363688
-9.78280003051811e-05
-9.78280003051811e-05
-0.00010058371862363688
-0.00010058371862363688
-0.00010333943694209268
-9.507228198672531e-05
-9.231656366826955e-05
-9.78280003051811e-05
-9.78280003051811e-05
-9.78280003051811e-05
-9.78280003051811e-05
-0.00010058371862363688
-0.00010333943694209268
-0.00010609515526054846
-0.00010333943694209268
-9.507228198672531e-05
-9.231656366826955e-05
-9.507228198672531e-05
-0.00010058371862363688
-0.00010058371862363688
-9.78280003051811e-05
-0.00010058371862363688
-0.00010058371862363688
-0.00010333943694209268
-9.78280003051811e-05
-9.507228198672531e-05
-9.507228198672531e-05
-8.956084534981374e-05
-8.956084534981374e-05
-8.404940871290214e-05
-7.302653543907902e-05
-6.475938048371164e-05
-5.098078889143272e-05
-2.342360570687485e-05
-1.377859159228559e-06
-6.889295796140132e-06
-3.169076066224221e-05
-5.3736507209888505e-05
-6.475938048371164e-05
-6.475938048371164e-05
-5.9247943846800084e-05
-5.3736507209888505e-05
-6.475938048371164e-05
-8.680512703135793e-05
-9.78280003051811e-05
-0.00010058371862363688
-9.78280003051811e-05
-9.78280003051811e-05
-0.00010333943694209268
-0.00011160659189746003
-0.00011436231021591582
-0.00010885087357900426
-0.00010609515526054846
-0.00011160659189746003
-0.0001171180285343716
-0.00011436231021591582
-0.00010885087357900426
-0.00010609515526054846
-0.00010609515526054846
-0.00010885087357900426
-0.00011160659189746003
-0.00010885087357900426
-0.00010609515526054846
-0.0001226294651712832
-0.00016672095826657574
-0.0002080567330434125
-0.00015294236667429682
-1.7912169069963278e-05
0.00015018664835583973
0.0003816669871061258
0.0007399103685053779
0.0010926423132677188
0.0008942305943389022
0.0006076358892195001
0.0003623769588769353
0.00010885087357900291
-5.3736507209888505e-05
-9.231656366826955e-05
-6.475938048371164e-05
-3.995791561760957e-05
-3.720219729915378e-05
-4.8225070572976926e-05
-5.9247943846800084e-05
-6.751509880216745e-05
-7.302653543907902e-05
-7.57822537575348e-05
-7.302653543907902e-05
-6.751509880216745e-05
-6.751509880216745e-05
-6.200366216525588e-05
-5.3736507209888505e-05
-5.098078889143272e-05
-4.5469352254521147e-05
-4.8225070572976926e-05
-5.098078889143272e-05
-5.098078889143272e-05
-4.8225070572976926e-05
-4.2713633936065354e-05
-3.720219729915378e-05
-3.4446478980697995e-05
-3.169076066224221e-05
-2.6179324025330647e-05
-2.342360570687485e-05
-2.066788738841907e-05
-2.342360570687485e-05
-2.066788738841907e-05
-1.5156450751507488e-05
-4.133577477684346e-06
-1.377859159228559e-06
-1.377859159228559e-06
1.3778591592272275e-06
6.8892957961388014e-06
1.7912169069961946e-05
2.3423605706873515e-05
2.3423605706873515e-05
2.3423605706873515e-05
3.169076066224089e-05
4.546935225451981e-05
5.098078889143139e-05
5.098078889143139e-05
5.649222552834297e-05
5.9247943846798756e-05
7.02708171206219e-05
8.129369039444505e-05
8.129369039444505e-05
8.68051270313566e-05
9.23165636682682e-05
0.00010333943694209132
0.00011711802853437029
0.00012262946517128183
0.0001253851834897376
0.00013365233844510492
0.00014191949340047234
0.00015294236667429551
0.00016120952162966288
0.00016396523994811866
0.00016396523994811866
0.0001832552681773092
0.00019427814145113231
0.0001970338597695881
0.0001970338597695881
0.0001970338597695881
0.00019427814145113231
0.00019152242313267648
0.00017774383154039756
0.000172232394903486
0.0001694766765850302
0.00016672095826657444
0.00016672095826657444
0.00015845380331120705
0.00014191949340047234
0.00012814090180819342
0.00011160659189745871
9.507228198672396e-05
7.02708171206219e-05
4.271363393606403e-05
2.066788738841773e-05
1.3778591592272275e-06
-1.7912169069963278e-05
-3.720219729915378e-05
-5.6492225528344285e-05
-7.302653543907902e-05
-8.404940871290214e-05
-9.231656366826955e-05
-9.78280003051811e-05
-0.00010885087357900426
-0.0001171180285343716
-0.0001198737468528274
-0.00011436231021591582
-0.00011436231021591582
-0.00011436231021591582
-0.0001171180285343716
-0.0001198737468528274
-0.00011436231021591582
-0.00010885087357900426
-0.00010885087357900426
-0.00010885087357900426
-0.00010885087357900426
-0.00010609515526054846
-0.00010333943694209268
-0.00010058371862363688
-0.00010333943694209268
-0.00010609515526054846
-0.00010058371862363688
-9.507228198672531e-05
-9.507228198672531e-05
-9.507228198672531e-05
-9.507228198672531e-05
-9.231656366826955e-05
-8.956084534981374e-05
-9.231656366826955e-05
-9.231656366826955e-05
-8.956084534981374e-05
-8.956084534981374e-05
-8.404940871290214e-05
-8.404940871290214e-05
-8.680512703135793e-05
-8.404940871290214e-05
-8.129369039444639e-05
-8.129369039444639e-05
-7.57822537575348e-05
-8.129369039444639e-05
-9.231656366826955e-05
-9.507228198672531e-05
-0.00010058371862363688
-0.00010058371862363688
-0.00010333943694209268
-0.00010609515526054846
-0.00010609515526054846
-0.00010058371862363688
-0.00010058371862363688
-0.00010609515526054846
-0.00010885087357900426
-0.00010609515526054846
-0.00010058371862363688
-0.00010058371862363688
-0.00010885087357900426
-0.00011436231021591582
-0.00011160659189746003
-0.00010333943694209268
-0.00010058371862363688
-0.00010333943694209268
-0.00010885087357900426
-0.00011160659189746003
-0.00010885087357900426
-0.00010885087357900426
-0.00010885087357900426
-0.00010885087357900426
-0.00011160659189746003
-0.00011160659189746003
-0.00010333943694209268
-0.00010333943694209268
-0.00010333943694209268
-0.00010609515526054846
-0.00010609515526054846
-0.00010609515526054846
-0.00010609515526054846
-0.00010885087357900426
-0.00010885087357900426
-0.00010885087357900426
-0.00010609515526054846
-0.00010885087357900426
-0.00011436231021591582
-0.0001171180285343716
-0.0001171180285343716
-0.00011436231021591582
-0.00011160659189746003
-0.00011436231021591582
-0.0001171180285343716
-0.0001171180285343716
-0.00011436231021591582
-0.00011160659189746003
-0.00011160659189746003
-0.00011160659189746003
-0.0001171180285343716
-0.0001171180285343716
-0.00010885087357900426
-0.00010609515526054846
-0.00011160659189746003
-0.00011436231021591582
-0.00011436231021591582
-0.00010885087357900426
-0.00010885087357900426
-0.00011436231021591582
-0.00011436231021591582
-0.00011160659189746003
-0.00010058371862363688
-9.507228198672531e-05
-0.00010333943694209268
-0.00010058371862363688
-9.78280003051811e-05
-9.231656366826955e-05
-8.680512703135793e-05
-8.680512703135793e-05
-8.956084534981374e-05
-8.404940871290214e-05
-7.85379720759906e-05
-7.302653543907902e-05
-5.3736507209888505e-05
-2.8935042343786426e-05
-2.6179324025330647e-05
-4.8225070572976926e-05
-7.027081712062322e-05
-8.404940871290214e-05
-8.680512703135793e-05
-8.129369039444639e-05
-7.027081712062322e-05
-7.302653543907902e-05
-9.78280003051811e-05
-0.00011160659189746003
-0.00011436231021591582
-0.00010885087357900426
-0.00010885087357900426
-0.00011160659189746003
-0.00011436231021591582
-0.0001171180285343716
-0.00011436231021591582
-0.00010885087357900426
-0.00011160659189746003
-0.0001171180285343716
-0.0001171180285343716
-0.00011436231021591582
-0.00011160659189746003
-0.00010885087357900426
-0.00011436231021591582
-0.00011160659189746003
-0.00010885087357900426
-0.00010609515526054846
-0.0001226294651712832
-0.0001777438315403989
-0.0002190796063172357
-0.00016947667658503157
-3.720219729915378e-05
0.00015294236667429551
0.00042300276188296266
0.0008143147631036844
0.0011863367360952157
0.0013130997787441814
0.0011753138628213923
0.0009300549324788276
0.0006434602273594254
0.0002989954375524522
2.8935042343785094e-05
-4.5469352254521147e-05
-3.995791561760957e-05
-3.4446478980697995e-05
-4.2713633936065354e-05
-5.098078889143272e-05
-6.200366216525588e-05
-7.85379720759906e-05
-8.404940871290214e-05
-8.680512703135793e-05
-8.404940871290214e-05
-7.57822537575348e-05
-7.57822537575348e-05
-7.85379720759906e-05
-7.302653543907902e-05
-6.475938048371164e-05
-6.475938048371164e-05
-6.475938048371164e-05
-6.200366216525588e-05
-5.3736507209888505e-05
-5.098078889143272e-05
-4.5469352254521147e-05
-4.2713633936065354e-05
-3.995791561760957e-05
-3.169076066224221e-05
-2.066788738841907e-05
-1.7912169069963278e-05
-2.342360570687485e-05
-2.8935042343786426e-05
-2.6179324025330647e-05
-1.7912169069963278e-05
-1.240073243305171e-05
-9.64501411459592e-06
-4.133577477684346e-06
-1.377859159228559e-06
4.133577477683014e-06
1.5156450751506162e-05
2.066788738841773e-05
2.066788738841773e-05
2.3423605706873515e-05
3.169076066224089e-05
4.546935225451981e-05
4.82250705729756e-05
4.546935225451981e-05
5.098078889143139e-05
6.475938048371032e-05
7.853797207598924e-05
8.129369039444505e-05
8.404940871290084e-05
8.956084534981241e-05
9.507228198672396e-05
0.00010609515526054714
0.00011436231021591448
0.00011711802853437029
0.00011987374685282605
0.00012814090180819342
0.00013916377508201656
0.00014467521171892812
0.00014467521171892812
0.00015018664835583973
0.00016120952162966288
0.00017498811322194178
0.0001832552681773092
0.00017774383154039756
0.000172232394903486
0.0001694766765850302
0.000172232394903486
0.000172232394903486
0.00016672095826657444
0.00016120952162966288
0.00015845380331120705
0.00016120952162966288
0.00015845380331120705
0.00015294236667429551
0.00014191949340047234
0.0001253851834897376
0.00011160659189745871
7.853797207598924e-05
5.098078889143139e-05
2.066788738841773e-05
-4.133577477684346e-06
-2.066788738841907e-05
-3.4446478980697995e-05
-4.8225070572976926e-05
-6.475938048371164e-05
-7.85379720759906e-05
-8.404940871290214e-05
-9.231656366826955e-05
-9.78280003051811e-05
-0.00010058371862363688
-0.00010333943694209268
-0.00010058371862363688
-0.00010058371862363688
-0.00010333943694209268
-0.00011160659189746003
-0.00011436231021591582
-0.00010609515526054846
-9.507228198672531e-05
-9.507228198672531e-05
-9.78280003051811e-05
-9.78280003051811e-05
-9.78280003051811e-05
-9.231656366826955e-05
-9.231656366826955e-05
-8.680512703135793e-05
-8.129369039444639e-05
-8.404940871290214e-05
-8.404940871290214e-05
-8.404940871290214e-05
-9.231656366826955e-05
-9.507228198672531e-05
-8.956084534981374e-05
-8.404940871290214e-05
-8.404940871290214e-05
-8.956084534981374e-05
-9.231656366826955e-05
-8.956084534981374e-05
-8.404940871290214e-05
-8.129369039444639e-05
-7.85379720759906e-05
-8.129369039444639e-05
-8.680512703135793e-05
-8.404940871290214e-05
-8.129369039444639e-05
-8.129369039444639e-05
-8.404940871290214e-05
-8.680512703135793e-05
-8.129369039444639e-05
-7.85379720759906e-05
-8.129369039444639e-05
-8.129369039444639e-05
-8.404940871290214e-05
-8.680512703135793e-05
-8.129369039444639e-05
-7.85379720759906e-05
-8.404940871290214e-05
-9.231656366826955e-05
-9.507228198672531e-05
-8.956084534981374e-05
-8.404940871290214e-05
-8.956084534981374e-05
-9.78280003051811e-05
-9.231656366826955e-05
-8.956084534981374e-05
-8.956084534981374e-05
-8.956084534981374e-05
-9.231656366826955e-05
-8.956084534981374e-05
-8.680512703135793e-05
-8.956084534981374e-05
-9.78280003051811e-05
-0.00010058371862363688
-0.00010058371862363688
-9.231656366826955e-05
-9.231656366826955e-05
-9.78280003051811e-05
-9.78280003051811e-05
-9.231656366826955e-05
-8.956084534981374e-05
-8.956084534981374e-05
-9.231656366826955e-05
-9.78280003051811e-05
-9.78280003051811e-05
-8.956084534981374e-05
-8.680512703135793e-05
-9.231656366826955e-05
-9.507228198672531e-05
-9.78280003051811e-05
-9.78280003051811e-05
-9.78280003051811e-05
-9.78280003051811e-05
-0.00010058371862363688
-9.78280003051811e-05
-9.507228198672531e-05
-8.680512703135793e-05
-8.129369039444639e-05
-8.404940871290214e-05
-8.129369039444639e-05
-8.129369039444639e-05
-8.129369039444639e-05
-8.956084534981374e-05
-9.78280003051811e-05
-9.78280003051811e-05
-9.507228198672531e-05
-9.231656366826955e-05
-9.507228198672531e-05
-0.00010058371862363688
-0.00010333943694209268
-0.00010609515526054846
-9.78280003051811e-05
-8.956084534981374e-05
-8.956084534981374e-05
-8.680512703135793e-05
-9.231656366826955e-05
-8.956084534981374e-05
-8.680512703135793e-05
-8.680512703135793e-05
-8.680512703135793e-05
-8.129369039444639e-05
-7.57822537575348e-05
-7.302653543907902e-05
-7.027081712062322e-05
-7.027081712062322e-05
-6.751509880216745e-05
-4.5469352254521147e-05
-9.64501411459592e-06
6.8892957961388014e-06
-3.995791561760957e-05
-5.098078889143272e-05
-5.098078889143272e-05
-4.8225070572976926e-05
-4.5469352254521147e-05
-5.098078889143272e-05
-6.200366216525588e-05
-7.302653543907902e-05
-8.129369039444639e-05
-8.404940871290214e-05
-8.680512703135793e-05
-8.680512703135793e-05
-8.680512703135793e-05
-8.404940871290214e-05
-8.404940871290214e-05
-8.956084534981374e-05
-9.231656366826955e-05
-8.680512703135793e-05
-8.129369039444639e-05
-8.404940871290214e-05
-8.956084534981374e-05
-8.956084534981374e-05
-8.129369039444639e-05
-7.85379720759906e-05
-7.85379720759906e-05
-8.404940871290214e-05
-9.231656366826955e-05
-0.0001198737468528274
-0.0001777438315403989
-0.00019152242313267784
-0.0001226294651712832
4.133577477683014e-06
0.0002383696345464249
0.0005938572976272215
0.0010182379186694126
0.001271764003967345
0.0012552296940566102
0.0010457951018539703
0.0007922690165560381
0.0005001628747997245
0.0001694766765850302
-6.889295796140132e-06
-2.066788738841907e-05
-1.240073243305171e-05
-1.5156450751507488e-05
-3.4446478980697995e-05
-5.6492225528344285e-05
-6.751509880216745e-05
-7.302653543907902e-05
-7.027081712062322e-05
-6.475938048371164e-05
-6.751509880216745e-05
-7.027081712062322e-05
-6.475938048371164e-05
-6.200366216525588e-05
-5.6492225528344285e-05
-5.3736507209888505e-05
-5.098078889143272e-05
-4.8225070572976926e-05
-5.098078889143272e-05
-4.5469352254521147e-05
-4.2713633936065354e-05
-3.995791561760957e-05
-3.720219729915378e-05
-2.8935042343786426e-05
-2.342360570687485e-05
-2.6179324025330647e-05
-2.066788738841907e-05
-1.5156450751507488e-05
-4.133577477684346e-06
-1.377859159228559e-06
1.3778591592272275e-06
4.133577477683014e-06
6.8892957961388014e-06
1.5156450751506162e-05
2.066788738841773e-05
2.066788738841773e-05
2.3423605706873515e-05
2.8935042343785094e-05
3.720219729915245e-05
4.271363393606403e-05
4.271363393606403e-05
4.546935225451981e-05
5.098078889143139e-05
6.475938048371032e-05
7.30265354390777e-05
7.853797207598924e-05
8.129369039444505e-05
8.404940871290084e-05
9.23165636682682e-05
0.00010333943694209132
0.00010885087357900291
0.00011711802853437029
0.00012262946517128183
0.0001253851834897376
0.00013640805676356078
0.00014191949340047234
0.00014743093003738393
0.00015294236667429551
0.00016672095826657444
0.00017774383154039756
0.0001832552681773092
0.0001832552681773092
0.0001832552681773092
0.0001832552681773092
0.00018876670481422076
0.00019152242313267648
0.0001832552681773092
0.00017774383154039756
0.00017498811322194178
0.00017498811322194178
0.000172232394903486
0.00016120952162966288
0.0001556980849927513
0.00015294236667429551
0.00015294236667429551
0.00014191949340047234
0.00011711802853437029
8.956084534981241e-05
5.9247943846798756e-05
3.720219729915245e-05
2.066788738841773e-05
-4.133577477684346e-06
-2.8935042343786426e-05
-4.5469352254521147e-05
-5.9247943846800084e-05
-6.200366216525588e-05
-7.027081712062322e-05
-8.404940871290214e-05
-0.00010058371862363688
-0.00010333943694209268
-0.00010609515526054846
-0.00010885087357900426
-0.00010885087357900426
-0.00010333943694209268
-9.507228198672531e-05
-9.231656366826955e-05
-9.231656366826955e-05
-9.507228198672531e-05
-9.231656366826955e-05
-8.956084534981374e-05
-8.680512703135793e-05
-8.956084534981374e-05
-9.231656366826955e-05
-9.231656366826955e-05
-8.680512703135793e-05
-8.129369039444639e-05
-8.404940871290214e-05
-8.404940871290214e-05
-8.404940871290214e-05
-8.404940871290214e-05
-7.85379720759906e-05
-7.302653543907902e-05
-7.57822537575348e-05
-7.85379720759906e-05
-8.129369039444639e-05
-8.129369039444639e-05
-8.129369039444639e-05
-8.404940871290214e-05
-8.680512703135793e-05
-8.680512703135793e-05
-8.404940871290214e-05
-8.129369039444639e-05
-8.129369039444639e-05
-7.85379720759906e-05
-8.129369039444639e-05
-7.57822537575348e-05
-7.027081712062322e-05
-7.302653543907902e-05
-7.85379720759906e-05
-8.129369039444639e-05
-7.85379720759906e-05
-8.129369039444639e-05
-8.956084534981374e-05
-9.78280003051811e-05
-9.78280003051811e-05
-9.507228198672531e-05
-9.231656366826955e-05
-8.956084534981374e-05
-8.956084534981374e-05
-9.231656366826955e-05
-9.231656366826955e-05
-9.231656366826955e-05
-9.231656366826955e-05
-9.507228198672531e-05
-0.00010058371862363688
-0.00010058371862363688
-9.507228198672531e-05
-8.680512703135793e-05
-9.231656366826955e-05
-9.78280003051811e-05
-9.231656366826955e-05
-8.680512703135793e-05
-8.680512703135793e-05
-9.231656366826955e-05
-9.78280003051811e-05
-0.00010058371862363688
-8.956084534981374e-05
-9.231656366826955e-05
-9.231656366826955e-05
-9.507228198672531e-05
-9.78280003051811e-05
-9.231656366826955e-05
-8.956084534981374e-05
-8.956084534981374e-05
-9.231656366826955e-05
-9.507228198672531e-05
-9.231656366826955e-05
-9.231656366826955e-05
-9.78280003051811e-05
-9.507228198672531e-05
-9.231656366826955e-05
-8.680512703135793e-05
-8.680512703135793e-05
-8.956084534981374e-05
-9.231656366826955e-05
-8.956084534981374e-05
-8.404940871290214e-05
-8.404940871290214e-05
-9.231656366826955e-05
-9.231656366826955e-05
-9.507228198672531e-05
-8.956084534981374e-05
-8.680512703135793e-05
-8.680512703135793e-05
-9.231656366826955e-05
-8.956084534981374e-05
-8.680512703135793e-05
-8.129369039444639e-05
-8.129369039444639e-05
-7.85379720759906e-05
-7.302653543907902e-05
-7.027081712062322e-05
-6.200366216525588e-05
-5.9247943846800084e-05
-5.098078889143272e-05
-2.8935042343786426e-05
-1.377859159228559e-06
4.133577477683014e-06
-1.240073243305171e-05
-3.4446478980697995e-05
-5.098078889143272e-05
-5.3736507209888505e-05
-4.8225070572976926e-05
-3.995791561760957e-05
-4.5469352254521147e-05
-5.9247943846800084e-05
-7.302653543907902e-05
-8.129369039444639e-05
-8.404940871290214e-05
-8.404940871290214e-05
-9.231656366826955e-05
-9.78280003051811e-05
-9.231656366826955e-05
-8.680512703135793e-05
-8.680512703135793e-05
-9.231656366826955e-05
-8.956084534981374e-05
-8.956084534981374e-05
-8.680512703135793e-05
-8.404940871290214e-05
-8.680512703135793e-05
-7.85379720759906e-05
-7.57822537575348e-05
-7.85379720759906e-05
-9.231656366826955e-05
-0.0001171180285343716
-0.00016672095826657574
-0.00017498811322194308
-8.129369039444639e-05
7.02708171206219e-05
0.0002686825360494386
0.0005387429312581057
0.0009024977492942696
0.0010871308766308072
0.000998947890440222
0.0007288874952315547
0.0004533156633859763
0.0002218353246356902
1.7912169069961946e-05
-7.027081712062322e-05
-7.57822537575348e-05
-3.720219729915378e-05
-1.240073243305171e-05
-1.5156450751507488e-05
-3.4446478980697995e-05
-4.8225070572976926e-05
-5.3736507209888505e-05
-5.6492225528344285e-05
-5.098078889143272e-05
-4.2713633936065354e-05
-4.5469352254521147e-05
-4.8225070572976926e-05
-4.5469352254521147e-05
-3.169076066224221e-05
-2.8935042343786426e-05
-3.169076066224221e-05
-3.169076066224221e-05
-2.6179324025330647e-05
-1.5156450751507488e-05
-6.889295796140132e-06
-4.133577477684346e-06
-1.377859159228559e-06
-1.377859159228559e-06
4.133577477683014e-06
9.64501411459459e-06
9.64501411459459e-06
4.133577477683014e-06
6.8892957961388014e-06
1.2400732433050376e-05
2.066788738841773e-05
2.6179324025329308e-05
2.8935042343785094e-05
3.169076066224089e-05
3.720219729915245e-05
4.271363393606403e-05
4.546935225451981e-05
4.82250705729756e-05
5.098078889143139e-05
5.9247943846798756e-05
6.751509880216611e-05
7.853797207598924e-05
8.404940871290084e-05
8.404940871290084e-05
8.68051270313566e-05
9.507228198672396e-05
0.00010609515526054714
0.00011436231021591448
0.00013089662012664922
0.00014191949340047234
0.00014743093003738393
0.00014743093003738393
0.00014467521171892812
0.00015294236667429551
0.00016120952162966288
0.000172232394903486
0.00017774383154039756
0.00017774383154039756
0.0001832552681773092
0.00019427814145113231
0.00020530101472495543
0.000210812451361867
0.0002135681696803228
0.000210812451361867
0.00021632388799877858
0.00021632388799877858
0.0002190796063172344
0.0002135681696803228
0.00020530101472495543
0.00020530101472495543
0.00020805673304341124
0.00020530101472495543
0.0001970338597695881
0.00018601098649576498
0.00017498811322194178
0.0001556980849927513
0.00013365233844510492
0.00010885087357900291
8.129369039444505e-05
5.373650720988717e-05
3.444647898069667e-05
2.066788738841773e-05
-1.377859159228559e-06
-2.6179324025330647e-05
-4.2713633936065354e-05
-5.098078889143272e-05
-5.3736507209888505e-05
-6.200366216525588e-05
-7.302653543907902e-05
-7.85379720759906e-05
-8.404940871290214e-05
-8.129369039444639e-05
-8.129369039444639e-05
-8.956084534981374e-05
-9.507228198672531e-05
-9.507228198672531e-05
-9.231656366826955e-05
-9.231656366826955e-05
-9.231656366826955e-05
-8.956084534981374e-05
-8.956084534981374e-05
-8.404940871290214e-05
-8.129369039444639e-05
-8.404940871290214e-05
-8.680512703135793e-05
-8.404940871290214e-05
-7.85379720759906e-05
-7.57822537575348e-05
-7.57822537575348e-05
-7.85379720759906e-05
-7.57822537575348e-05
-7.027081712062322e-05
-6.751509880216745e-05
-6.751509880216745e-05
-7.027081712062322e-05
-7.027081712062322e-05
-6.751509880216745e-05
-6.475938048371164e-05
-6.751509880216745e-05
-7.027081712062322e-05
-7.027081712062322e-05
-6.751509880216745e-05
-6.475938048371164e-05
-7.027081712062322e-05
-7.027081712062322e-05
-7.302653543907902e-05
-7.302653543907902e-05
-7.302653543907902e-05
-7.302653543907902e-05
-7.85379720759906e-05
-7.85379720759906e-05
-7.85379720759906e-05
-7.57822537575348e-05
-8.129369039444639e-05
-8.129369039444639e-05
-7.57822537575348e-05
-7.57822537575348e-05
-7.302653543907902e-05
-7.302653543907902e-05
-8.404940871290214e-05
-8.956084534981374e-05
-8.680512703135793e-05
-8.129369039444639e-05
-8.129369039444639e-05
-8.404940871290214e-05
-8.680512703135793e-05
-8.956084534981374e-05
-8.956084534981374e-05
-8.680512703135793e-05
-9.507228198672531e-05
-9.507228198672531e-05
-9.231656366826955e-05
-8.956084534981374e-05
-8.404940871290214e-05
-7.57822537575348e-05
-8.129369039444639e-05
-8.404940871290214e-05
-8.680512703135793e-05
-8.956084534981374e-05
-9.231656366826955e-05
-9.507228198672531e-05
-9.507228198672531e-05
-8.956084534981374e-05
-8.404940871290214e-05
-8.404940871290214e-05
-8.956084534981374e-05
-9.231656366826955e-05
-9.231656366826955e-05
-8.680512703135793e-05
-8.129369039444639e-05
-8.404940871290214e-05
-8.404940871290214e-05
-8.680512703135793e-05
-8.680512703135793e-05
-8.680512703135793e-05
-9.231656366826955e-05
-9.231656366826955e-05
-9.507228198672531e-05
-8.680512703135793e-05
-8.129369039444639e-05
-8.404940871290214e-05
-8.680512703135793e-05
-8.404940871290214e-05
-8.129369039444639e-05
-8.680512703135793e-05
-8.956084534981374e-05
-8.680512703135793e-05
-8.129369039444639e-05
-7.85379720759906e-05
-7.57822537575348e-05
-6.751509880216745e-05
-6.475938048371164e-05
-6.475938048371164e-05
-5.9247943846800084e-05
-5.6492225528344285e-05
-4.8225070572976926e-05
-2.8935042343786426e-05
-6.889295796140132e-06
-1.377859159228559e-06
-2.066788738841907e-05
-5.098078889143272e-05
-6.200366216525588e-05
-6.475938048371164e-05
-5.9247943846800084e-05
-5.098078889143272e-05
-5.3736507209888505e-05
-7.302653543907902e-05
-8.956084534981374e-05
-9.231656366826955e-05
-8.680512703135793e-05
-8.404940871290214e-05
-8.956084534981374e-05
-9.78280003051811e-05
-9.78280003051811e-05
-9.507228198672531e-05
-0.00010058371862363688
-0.00010333943694209268
-9.78280003051811e-05
-9.78280003051811e-05
-9.78280003051811e-05
-9.507228198672531e-05
-9.507228198672531e-05
-9.78280003051811e-05
-9.78280003051811e-05
-9.231656366826955e-05
-9.231656366826955e-05
-0.00010609515526054846
-0.00014191949340047367
-0.00018876670481422206
-0.00015569808499275262
-2.342360570687485e-05
0.0001556980849927513
0.0003954455786984048
0.0007454218051422897
0.001125710933089188
0.0012965654688334468
0.0011946038910505827
0.0009521006790264736
0.0006737731288624392
0.0003568655222400236
7.30265354390777e-05
-3.169076066224221e-05
-2.8935042343786426e-05
-1.7912169069963278e-05
-3.169076066224221e-05
-4.8225070572976926e-05
-5.6492225528344285e-05
-6.200366216525588e-05
-6.200366216525588e-05
-6.200366216525588e-05
-6.475938048371164e-05
-6.200366216525588e-05
-5.9247943846800084e-05
-5.3736507209888505e-05
-4.5469352254521147e-05
-4.2713633936065354e-05
-4.5469352254521147e-05
-4.8225070572976926e-05
-4.8225070572976926e-05
-4.8225070572976926e-05
-4.2713633936065354e-05
-3.995791561760957e-05
-3.995791561760957e-05
-3.720219729915378e-05
-3.169076066224221e-05
-2.342360570687485e-05
-1.7912169069963278e-05
-1.5156450751507488e-05
-6.889295796140132e-06
1.3778591592272275e-06
9.64501411459459e-06
1.2400732433050376e-05
1.2400732433050376e-05
1.5156450751506162e-05
2.066788738841773e-05
2.6179324025329308e-05
2.3423605706873515e-05
2.3423605706873515e-05
2.8935042343785094e-05
4.271363393606403e-05
5.373650720988717e-05
5.649222552834297e-05
5.649222552834297e-05
5.649222552834297e-05
6.751509880216611e-05
7.853797207598924e-05
8.68051270313566e-05
8.956084534981241e-05
9.507228198672396e-05
0.00010609515526054714
0.00011436231021591448
0.00012262946517128183
0.0001253851834897376
0.00013089662012664922
0.00013640805676356078
0.00014743093003738393
0.00015845380331120705
0.00016396523994811866
0.00016672095826657444
0.00017498811322194178
0.00018876670481422076
0.0001970338597695881
0.00019978957808804387
0.0001970338597695881
0.00019427814145113231
0.00019152242313267648
0.0001970338597695881
0.0001970338597695881
0.00019152242313267648
0.00018876670481422076
0.00019427814145113231
0.00019152242313267648
0.00018049954985885336
0.00016672095826657444
0.00014743093003738393
0.00013089662012664922
0.00010885087357900291
8.129369039444505e-05
5.373650720988717e-05
2.8935042343785094e-05
1.2400732433050376e-05
-4.133577477684346e-06
-2.8935042343786426e-05
-5.098078889143272e-05
-6.475938048371164e-05
-7.57822537575348e-05
-8.129369039444639e-05
-8.129369039444639e-05
-8.680512703135793e-05
-9.507228198672531e-05
-9.78280003051811e-05
-0.00010058371862363688
-0.00010333943694209268
-0.00010333943694209268
-0.00010885087357900426
-0.00010609515526054846
-9.78280003051811e-05
-9.231656366826955e-05
-0.00010058371862363688
-0.00010333943694209268
-0.00010058371862363688
-9.231656366826955e-05
-8.680512703135793e-05
-9.231656366826955e-05
-9.78280003051811e-05
-9.78280003051811e-05
-9.507228198672531e-05
-8.680512703135793e-05
-8.404940871290214e-05
-8.680512703135793e-05
-8.956084534981374e-05
-8.680512703135793e-05
-8.680512703135793e-05
-8.956084534981374e-05
-9.231656366826955e-05
-9.507228198672531e-05
-9.507228198672531e-05
-8.956084534981374e-05
-8.680512703135793e-05
-8.956084534981374e-05
-8.680512703135793e-05
-8.680512703135793e-05
-8.956084534981374e-05
-8.956084534981374e-05
-9.507228198672531e-05
-9.231656366826955e-05
-8.956084534981374e-05
-8.956084534981374e-05
-8.404940871290214e-05
-8.680512703135793e-05
-9.507228198672531e-05
-0.00010058371862363688
-0.00010058371862363688
-9.78280003051811e-05
-0.00010333943694209268
-0.00010609515526054846
-0.00010885087357900426
-0.00010333943694209268
-0.00010333943694209268
-0.00010885087357900426
-0.00011436231021591582
-0.0001171180285343716
-0.00010885087357900426
-0.00010609515526054846
-0.00010885087357900426
-0.00011436231021591582
-0.00011436231021591582
-0.00010885087357900426
-0.00010885087357900426
-0.00011160659189746003
-0.00011160659189746003
-0.00011160659189746003
-0.00010885087357900426
-0.00010333943694209268
-0.00011160659189746003
-0.0001171180285343716
-0.0001198737468528274
-0.0001171180285343716
-0.00011436231021591582
-0.00011436231021591582
-0.0001171180285343716
-0.0001171180285343716
-0.00011436231021591582
-0.00011160659189746003
-0.00011436231021591582
-0.0001171180285343716
-0.0001171180285343716
-0.00011160659189746003
-0.00010333943694209268
-0.00010609515526054846
-0.00011160659189746003
-0.0001171180285343716
-0.0001198737468528274
-0.0001171180285343716
-0.00011160659189746003
-0.00011436231021591582
-0.0001171180285343716
-0.0001171180285343716
-0.00011436231021591582
-0.00010609515526054846
-0.00010333943694209268
-0.00010885087357900426
-0.00011436231021591582
-0.00011160659189746003
-0.00011436231021591582
-0.0001171180285343716
-0.0001198737468528274
-0.00012538518348973897
-0.0001198737468528274
-0.00011436231021591582
-0.00011436231021591582
-0.0001171180285343716
-0.00011436231021591582
-0.00011436231021591582
-0.00011160659189746003
-0.00011160659189746003
-0.00011160659189746003
-0.00010885087357900426
-0.00010885087357900426
-0.00010058371862363688
-8.956084534981374e-05
-8.680512703135793e-05
-5.9247943846800084e-05
-3.169076066224221e-05
-3.169076066224221e-05
-5.9247943846800084e-05
-8.404940871290214e-05
-9.507228198672531e-05
-9.507228198672531e-05
-8.404940871290214e-05
-8.129369039444639e-05
-8.680512703135793e-05
-0.00010333943694209268
-0.00011436231021591582
-0.00010885087357900426
-0.00011160659189746003
-0.0001171180285343716
-0.0001198737468528274
-0.0001226294651712832
-0.0001198737468528274
-0.0001171180285343716
-0.0001198737468528274
-0.0001226294651712832
-0.00012538518348973897
-0.00012538518348973897
-0.00012538518348973897
-0.00012538518348973897
-0.0001226294651712832
-0.0001198737468528274
-0.00011436231021591582
-0.00011160659189746003
-0.0001198737468528274
-0.0001391637750820179
-0.00018325526817731047
-0.00023561391622797047
-0.00020530101472495681
-0.00010058371862363688
7.578225375753347e-05
0.0003485983672846564
0.000753688960097657
0.0011477566796368347
0.0012993211871519031
0.0011835810177767598
0.0009410778057526506
0.0006682616922255276
0.0003348197756923775
4.546935225451981e-05
-5.098078889143272e-05
-5.3736507209888505e-05
-5.098078889143272e-05
-5.3736507209888505e-05
-7.027081712062322e-05
-8.404940871290214e-05
-9.507228198672531e-05
-0.00010333943694209268
-0.00010333943694209268
-0.00010058371862363688
-9.78280003051811e-05
-9.78280003051811e-05
-9.78280003051811e-05
-9.231656366826955e-05
-8.680512703135793e-05
-8.404940871290214e-05
-8.680512703135793e-05
-8.956084534981374e-05
-8.956084534981374e-05
-7.027081712062322e-05
-6.475938048371164e-05
-6.475938048371164e-05
-6.200366216525588e-05
-5.6492225528344285e-05
-5.3736507209888505e-05
-5.6492225528344285e-05
-6.200366216525588e-05
-5.3736507209888505e-05
-3.995791561760957e-05
-3.169076066224221e-05
-2.342360570687485e-05
-2.342360570687485e-05
-1.7912169069963278e-05
-9.64501411459592e-06
-1.5156450751507488e-05
-1.240073243305171e-05
-6.889295796140132e-06
1.3778591592272275e-06
1.2400732433050376e-05
2.3423605706873515e-05
2.3423605706873515e-05
2.066788738841773e-05
2.3423605706873515e-05
3.169076066224089e-05
4.271363393606403e-05
4.546935225451981e-05
4.82250705729756e-05
5.373650720988717e-05
6.200366216525454e-05
7.578225375753347e-05
7.853797207598924e-05
8.129369039444505e-05
8.68051270313566e-05
9.507228198672396e-05
0.00010333943694209132
0.00011160659189745871
0.00011711802853437029
0.00011987374685282605
0.00013089662012664922
0.00014191949340047234
0.00014467521171892812
0.00014191949340047234
0.00014467521171892812
0.00014743093003738393
0.00015018664835583973
0.0001556980849927513
0.00015294236667429551
0.00015018664835583973
0.00014467521171892812
0.00013916377508201656
0.00013089662012664922
0.0001253851834897376
0.00011987374685282605
0.00010885087357900291
0.00010058371862363556
8.956084534981241e-05
7.02708171206219e-05
4.271363393606403e-05
1.5156450751506162e-05
-1.377859159228559e-06
-1.7912169069963278e-05
-3.995791561760957e-05
-6.475938048371164e-05
-8.129369039444639e-05
-9.507228198672531e-05
-0.00010333943694209268
-0.00011436231021591582
-0.0001226294651712832
-0.00012814090180819475
-0.00013089662012665053
-0.00012814090180819475
-0.0001336523384451063
-0.0001391637750820179
-0.0001364080567635621
-0.0001336523384451063
-0.0001226294651712832
-0.0001226294651712832
-0.00012814090180819475
-0.00012814090180819475
-0.0001226294651712832
-0.0001198737468528274
-0.00012538518348973897
-0.00013089662012665053
-0.00013089662012665053
-0.00012814090180819475
-0.0001226294651712832
-0.0001171180285343716
-0.0001171180285343716
-0.0001171180285343716
-0.0001198737468528274
-0.00011436231021591582
-0.00011160659189746003
-0.00011436231021591582
-0.0001171180285343716
-0.0001171180285343716
-0.00011436231021591582
-0.0001171180285343716
-0.0001171180285343716
-0.0001198737468528274
-0.0001198737468528274
-0.0001171180285343716
-0.00011436231021591582
-0.00011436231021591582
-0.0001171180285343716
-0.0001226294651712832
-0.0001171180285343716
-0.00011160659189746003
-0.00011160659189746003
-0.0001198737468528274
-0.0001198737468528274
-0.00011436231021591582
-0.00011160659189746003
-0.00010885087357900426
-0.0001171180285343716
-0.0001226294651712832
-0.0001226294651712832
-0.00011436231021591582
-0.00011436231021591582
-0.00011436231021591582
-0.0001198737468528274
-0.00012814090180819475
-0.00012814090180819475
-0.0001198737468528274
-0.0001226294651712832
-0.00012538518348973897
-0.00012538518348973897
-0.00012538518348973897
-0.0001198737468528274
-0.0001226294651712832
-0.00012814090180819475
-0.00012538518348973897
-0.00012538518348973897
-0.00012538518348973897
-0.0001226294651712832
-0.00012538518348973897
-0.00012814090180819475
-0.00012538518348973897
-0.00012538518348973897
-0.00013089662012665053
-0.0001364080567635621
-0.0001364080567635621
-0.00012814090180819475
-0.00012538518348973897
-0.00013089662012665053
-0.00013089662012665053
-0.00012814090180819475
-0.00012538518348973897
-0.0001198737468528274
-0.0001226294651712832
-0.00013089662012665053
-0.00013089662012665053
-0.00012538518348973897
-0.00012538518348973897
-0.00012538518348973897
-0.00012814090180819475
-0.0001336523384451063
-0.0001336523384451063
-0.00012814090180819475
-0.00012538518348973897
-0.00012538518348973897
-0.0001198737468528274
-0.0001198737468528274
-0.0001226294651712832
-0.0001226294651712832
-0.00012814090180819475
-0.00013089662012665053
-0.00013089662012665053
-0.00012814090180819475
-0.00012538518348973897
-0.00012538518348973897
-0.00012538518348973897
-0.0001226294651712832
-0.0001198737468528274
-0.0001171180285343716
-0.00011436231021591582
-0.00011160659189746003
-0.00011436231021591582
-0.00010609515526054846
-9.507228198672531e-05
-8.956084534981374e-05
-7.85379720759906e-05
-5.6492225528344285e-05
-3.995791561760957e-05
-4.8225070572976926e-05
-7.302653543907902e-05
-8.956084534981374e-05
-9.78280003051811e-05
-9.78280003051811e-05
-9.231656366826955e-05
-8.680512703135793e-05
-9.231656366826955e-05
-0.00011160659189746003
-0.00012538518348973897
-0.0001198737468528274
-0.0001198737468528274
-0.00012538518348973897
-0.00013089662012665053
-0.0001226294651712832
-0.0001226294651712832
-0.00012538518348973897
-0.00013089662012665053
-0.00013089662012665053
-0.00012538518348973897
-0.0001171180285343716
-0.0001171180285343716
-0.00012538518348973897
-0.0001226294651712832
-0.0001171180285343716
-0.00011436231021591582
-0.00012814090180819475
-0.00015569808499275262
-0.00020530101472495681
-0.00023285819790951464
-0.00016947667658503157
-3.995791561760957e-05
0.00014743093003738393
0.00042851419851987416
0.0008225819180590517
0.001089886594949263
0.0010733522850385282
0.0008363605096513305
0.0005497658045319286
0.00030450687418936376
6.751509880216611e-05
-7.027081712062322e-05
-9.507228198672531e-05
-7.302653543907902e-05
-6.200366216525588e-05
-6.475938048371164e-05
-7.57822537575348e-05
-8.680512703135793e-05
-8.956084534981374e-05
-8.956084534981374e-05
-8.956084534981374e-05
-8.680512703135793e-05
-8.956084534981374e-05
-8.956084534981374e-05
-8.956084534981374e-05
-8.404940871290214e-05
-7.57822537575348e-05
-7.302653543907902e-05
-7.027081712062322e-05
-6.751509880216745e-05
-6.475938048371164e-05
-5.6492225528344285e-05
-4.8225070572976926e-05
-4.5469352254521147e-05
-4.5469352254521147e-05
-4.2713633936065354e-05
-3.720219729915378e-05
-2.8935042343786426e-05
-2.6179324025330647e-05
-2.8935042343786426e-05
-2.6179324025330647e-05
-1.7912169069963278e-05
-6.889295796140132e-06
-6.889295796140132e-06
-9.64501411459592e-06
-4.133577477684346e-06
1.3778591592272275e-06
9.64501411459459e-06
1.2400732433050376e-05
1.7912169069961946e-05
2.6179324025329308e-05
3.9957915617608246e-05
3.9957915617608246e-05
4.546935225451981e-05
5.098078889143139e-05
5.649222552834297e-05
6.200366216525454e-05
6.475938048371032e-05
6.751509880216611e-05
7.578225375753347e-05
8.956084534981241e-05
0.00010609515526054714
0.00011436231021591448
0.00011711802853437029
0.00012262946517128183
0.00012814090180819342
0.00013089662012664922
0.00013916377508201656
0.00013916377508201656
0.00014467521171892812
0.00015294236667429551
0.00016120952162966288
0.0001694766765850302
0.0001694766765850302
0.0001694766765850302
0.0001694766765850302
0.00017498811322194178
0.00017774383154039756
0.00017774383154039756
0.00016672095826657444
0.00015845380331120705
0.00015845380331120705
0.00016120952162966288
0.00015845380331120705
0.00014467521171892812
0.00013089662012664922
0.00011436231021591448
0.00010333943694209132
8.129369039444505e-05
5.098078889143139e-05
2.8935042343785094e-05
6.8892957961388014e-06
-1.240073243305171e-05
-3.4446478980697995e-05
-5.6492225528344285e-05
-8.129369039444639e-05
-9.507228198672531e-05
-0.00010058371862363688
-0.00010885087357900426
-0.0001198737468528274
-0.00012538518348973897
-0.00012538518348973897
-0.0001226294651712832
-0.0001198737468528274
-0.00012538518348973897
-0.00013089662012665053
-0.00013089662012665053
-0.00012538518348973897
-0.0001226294651712832
-0.00012538518348973897
-0.00012538518348973897
-0.00012538518348973897
-0.0001226294651712832
-0.00010885087357900426
-0.00010058371862363688
-0.00010609515526054846
-0.00010609515526054846
-0.00010609515526054846
-0.00010333943694209268
-0.00010609515526054846
-0.00010885087357900426
-0.00010609515526054846
-0.00010058371862363688
-0.00010058371862363688
-0.00010333943694209268
-0.00010609515526054846
-0.00010609515526054846
-0.00010609515526054846
-0.00010058371862363688
-9.78280003051811e-05
-0.00010058371862363688
-0.00010058371862363688
-9.78280003051811e-05
-9.231656366826955e-05
-9.231656366826955e-05
-9.78280003051811e-05
-0.00010333943694209268
-0.00010609515526054846
-9.78280003051811e-05
-9.78280003051811e-05
-0.00010333943694209268
-0.00010885087357900426
-0.00010885087357900426
-0.00010609515526054846
-0.00010609515526054846
-0.00010609515526054846
-0.00010885087357900426
-0.00010885087357900426
-0.00010609515526054846
-0.00010885087357900426
-0.00011160659189746003
-0.00011436231021591582
-0.0001171180285343716
-0.0001171180285343716
-0.00011160659189746003
-0.00011436231021591582
-0.0001198737468528274
-0.0001198737468528274
-0.0001171180285343716
-0.00011436231021591582
-0.00011436231021591582
-0.0001226294651712832
-0.0001198737468528274
-0.0001171180285343716
-0.00011436231021591582
-0.00011160659189746003
-0.00011160659189746003
-0.00011436231021591582
-0.0001171180285343716
-0.00011160659189746003
-0.00010609515526054846
-0.00011436231021591582
-0.0001198737468528274
-0.0001198737468528274
-0.00011436231021591582
-0.00011160659189746003
-0.00011436231021591582
-0.0001171180285343716
-0.0001226294651712832
-0.00011436231021591582
-0.0001171180285343716
-0.0001198737468528274
-0.0001198737468528274
-0.00011436231021591582
-0.00010885087357900426
-0.00011160659189746003
-0.00010609515526054846
-0.00010333943694209268
-0.00010058371862363688
-0.00010058371862363688
-0.00010058371862363688
-0.00010058371862363688
-9.78280003051811e-05
-9.507228198672531e-05
-8.956084534981374e-05
-8.680512703135793e-05
-8.956084534981374e-05
-7.302653543907902e-05
-4.5469352254521147e-05
-2.6179324025330647e-05
-2.066788738841907e-05
-3.995791561760957e-05
-6.200366216525588e-05
-7.57822537575348e-05
-7.302653543907902e-05
-6.751509880216745e-05
-6.475938048371164e-05
-7.302653543907902e-05
-8.956084534981374e-05
-0.00010609515526054846
-0.00010609515526054846
-0.00010885087357900426
-0.00011436231021591582
-0.0001171180285343716
-0.0001171180285343716
-0.00010885087357900426
-0.00010885087357900426
-0.00011160659189746003
-0.00011436231021591582
-0.0001171180285343716
-0.00011436231021591582
-0.00011436231021591582
-0.0001198737468528274
-0.00012538518348973897
-0.0001226294651712832
-0.0001171180285343716
-0.00011160659189746003
-0.00010885087357900426
-0.0001198737468528274
-0.00015294236667429682
-0.0001997895780880452
-0.0001777438315403989
-5.098078889143272e-05
0.00011987374685282605
0.0003348197756923775
0.0006544831006332488
0.0010182379186694126
0.0011450009613183788
0.0010017036087586776
0.0007261317769130989
0.0004643385366597993
0.00020805673304341124
-1.5156450751507488e-05
-9.507228198672531e-05
-7.85379720759906e-05
-4.2713633936065354e-05
-5.3736507209888505e-05
-6.751509880216745e-05
-7.85379720759906e-05
-7.85379720759906e-05
-7.302653543907902e-05
-6.751509880216745e-05
-7.302653543907902e-05
-7.85379720759906e-05
-7.57822537575348e-05
-7.027081712062322e-05
-6.751509880216745e-05
-6.475938048371164e-05
-6.475938048371164e-05
-5.9247943846800084e-05
-5.6492225528344285e-05
-4.2713633936065354e-05
-3.720219729915378e-05
-4.2713633936065354e-05
-4.2713633936065354e-05
-3.995791561760957e-05
-2.8935042343786426e-05
-2.342360570687485e-05
-2.342360570687485e-05
-2.342360570687485e-05
-1.5156450751507488e-05
-1.377859159228559e-06
1.3778591592272275e-06
-1.377859159228559e-06
1.3778591592272275e-06
1.3778591592272275e-06
9.64501411459459e-06
1.7912169069961946e-05
2.066788738841773e-05
2.3423605706873515e-05
3.169076066224089e-05
3.720219729915245e-05
4.546935225451981e-05
5.098078889143139e-05
5.373650720988717e-05
5.373650720988717e-05
6.200366216525454e-05
7.578225375753347e-05
8.404940871290084e-05
8.956084534981241e-05
8.956084534981241e-05
0.00010609515526054714
0.00011987374685282605
0.0001253851834897376
0.00012814090180819342
0.00013089662012664922
0.00014467521171892812
0.00015294236667429551
0.00015845380331120705
0.00016120952162966288
0.00016396523994811866
0.000172232394903486
0.00017774383154039756
0.00018601098649576498
0.00019152242313267648
0.0001970338597695881
0.00019978957808804387
0.00020254529640649968
0.00020254529640649968
0.0001970338597695881
0.00018601098649576498
0.00019152242313267648
0.00019427814145113231
0.0001832552681773092
0.0001694766765850302
0.00015845380331120705
0.00014191949340047234
0.0001253851834897376
0.00010333943694209132
7.30265354390777e-05
4.271363393606403e-05
2.3423605706873515e-05
9.64501411459459e-06
-1.5156450751507488e-05
-4.2713633936065354e-05
-6.475938048371164e-05
-8.129369039444639e-05
-8.956084534981374e-05
-9.78280003051811e-05
-0.00010885087357900426
-0.00011436231021591582
-0.00011436231021591582
-0.00011436231021591582
-0.00011160659189746003
-0.00010885087357900426
-0.00010885087357900426
-0.00011436231021591582
-0.0001171180285343716
-0.00011436231021591582
-0.00011436231021591582
-0.00011160659189746003
-0.00011436231021591582
-0.0001171180285343716
-0.00010885087357900426
-0.00010609515526054846
-0.00010609515526054846
-0.00010609515526054846
-0.00010333943694209268
-9.78280003051811e-05
-9.507228198672531e-05
-9.78280003051811e-05
-9.78280003051811e-05
-9.507228198672531e-05
-9.231656366826955e-05
-8.956084534981374e-05
-9.231656366826955e-05
-9.231656366826955e-05
-8.680512703135793e-05
-7.85379720759906e-05
-7.85379720759906e-05
-8.129369039444639e-05
-8.680512703135793e-05
-9.231656366826955e-05
-9.231656366826955e-05
-8.680512703135793e-05
-8.956084534981374e-05
-9.231656366826955e-05
-9.507228198672531e-05
-9.231656366826955e-05
-8.129369039444639e-05
-8.129369039444639e-05
-8.680512703135793e-05
-8.956084534981374e-05
-9.231656366826955e-05
-9.507228198672531e-05
-9.507228198672531e-05
-0.00010333943694209268
-0.00010058371862363688
-9.507228198672531e-05
-9.507228198672531e-05
-9.78280003051811e-05
-0.00010609515526054846
-0.00010885087357900426
-0.00010885087357900426
-0.00010609515526054846
-0.00010885087357900426
-0.00010885087357900426
-0.00010885087357900426
-0.00010333943694209268
-0.00010058371862363688
-0.00010609515526054846
-0.00010885087357900426
-0.00011436231021591582
-0.00011160659189746003
-0.00010609515526054846
-0.00010333943694209268
-0.00010609515526054846
-0.00010885087357900426
-0.00010885087357900426
-0.00010609515526054846
-0.00010609515526054846
-0.00010885087357900426
-0.00010609515526054846
-0.00010885087357900426
-0.00010609515526054846
-0.00010333943694209268
-0.00010609515526054846
-0.00010885087357900426
-0.00011160659189746003
-0.00010609515526054846
-0.00010609515526054846
-0.00010885087357900426
-0.00010609515526054846
-0.00010609515526054846
-0.00010333943694209268
-9.78280003051811e-05
-0.00010058371862363688
-0.00010333943694209268
-0.00010333943694209268
-0.00010058371862363688
-9.231656366826955e-05
-9.507228198672531e-05
-9.507228198672531e-05
-9.507228198672531e-05
-9.507228198672531e-05
-9.231656366826955e-05
-9.78280003051811e-05
-0.00010333943694209268
-0.00010609515526054846
-0.00010333943694209268
-9.507228198672531e-05
-8.680512703135793e-05
-8.680512703135793e-05
-9.231656366826955e-05
-9.507228198672531e-05
-8.680512703135793e-05
-8.129369039444639e-05
-7.85379720759906e-05
-7.85379720759906e-05
-7.85379720759906e-05
-5.9247943846800084e-05
-9.64501411459592e-06
-9.64501411459592e-06
-2.342360570687485e-05
-4.5469352254521147e-05
-6.200366216525588e-05
-6.751509880216745e-05
-6.751509880216745e-05
-6.475938048371164e-05
-6.751509880216745e-05
-7.85379720759906e-05
-9.231656366826955e-05
-0.00010058371862363688
-0.00010333943694209268
-0.00010609515526054846
-0.00010333943694209268
-0.00010333943694209268
-0.00010333943694209268
-0.00010885087357900426
-0.00010609515526054846
-0.00010058371862363688
-9.231656366826955e-05
-9.78280003051811e-05
-9.78280003051811e-05
-0.00010333943694209268
-0.00010333943694209268
-9.231656366826955e-05
-8.956084534981374e-05
-9.231656366826955e-05
-9.78280003051811e-05
-0.00011436231021591582
-0.00014467521171892948
-0.00019703385976958942
-0.0001777438315403989
-7.027081712062322e-05
9.782800030517979e-05
0.00035410980392156795
0.0007095974670023644
0.0011064209048599978
0.0012993211871519031
0.001224916792553597
0.0010017036087586776
0.0007371546501869223
0.00041197988860913943
9.507228198672396e-05
-2.8935042343786426e-05
-2.8935042343786426e-05
-2.066788738841907e-05
-2.8935042343786426e-05
-4.5469352254521147e-05
-6.475938048371164e-05
-6.751509880216745e-05
-6.751509880216745e-05
-7.302653543907902e-05
-8.404940871290214e-05
-8.680512703135793e-05
-8.129369039444639e-05
-7.302653543907902e-05
-6.751509880216745e-05
-6.751509880216745e-05
-6.751509880216745e-05
-6.200366216525588e-05
-5.098078889143272e-05
-4.8225070572976926e-05
-5.098078889143272e-05
-4.8225070572976926e-05
-4.2713633936065354e-05
-3.4446478980697995e-05
-3.4446478980697995e-05
-3.720219729915378e-05
-3.169076066224221e-05
-2.066788738841907e-05
-1.5156450751507488e-05
-1.240073243305171e-05
-6.889295796140132e-06
-4.133577477684346e-06
4.133577477683014e-06
1.2400732433050376e-05
9.64501411459459e-06
1.2400732433050376e-05
1.7912169069961946e-05
2.6179324025329308e-05
3.444647898069667e-05
4.271363393606403e-05
4.82250705729756e-05
5.649222552834297e-05
6.475938048371032e-05
7.30265354390777e-05
7.02708171206219e-05
7.30265354390777e-05
7.853797207598924e-05
8.68051270313566e-05
8.956084534981241e-05
9.507228198672396e-05
9.507228198672396e-05
0.00010058371862363556
0.00011160659189745871
0.00012262946517128183
0.00013365233844510492
0.00013916377508201656
0.00014743093003738393
0.00015294236667429551
0.00015845380331120705
0.0001694766765850302
0.000172232394903486
0.00017774383154039756
0.00018049954985885336
0.00018876670481422076
0.00019427814145113231
0.00019152242313267648
0.00018601098649576498
0.0001832552681773092
0.00018049954985885336
0.00018049954985885336
0.00018049954985885336
0.00017774383154039756
0.00017774383154039756
0.000172232394903486
0.00016672095826657444
0.00015018664835583973
0.0001253851834897376
0.00010058371862363556
7.578225375753347e-05
5.373650720988717e-05
3.169076066224089e-05
6.8892957961388014e-06
-2.066788738841907e-05
-3.995791561760957e-05
-5.3736507209888505e-05
-5.9247943846800084e-05
-7.302653543907902e-05
-8.404940871290214e-05
-0.00010058371862363688
-9.507228198672531e-05
-9.78280003051811e-05
-0.00010058371862363688
-0.00010058371862363688
-0.00010058371862363688
-0.00010058371862363688
-0.00010058371862363688
-0.00010058371862363688
-9.78280003051811e-05
-9.507228198672531e-05
-9.231656366826955e-05
-9.231656366826955e-05
-9.231656366826955e-05
-9.507228198672531e-05
-9.507228198672531e-05
-9.231656366826955e-05
-8.956084534981374e-05
-8.956084534981374e-05
-8.956084534981374e-05
-8.956084534981374e-05
-8.680512703135793e-05
-8.404940871290214e-05
-8.680512703135793e-05
-8.956084534981374e-05
-9.231656366826955e-05
-8.956084534981374e-05
-8.129369039444639e-05
-8.129369039444639e-05
-8.680512703135793e-05
-8.956084534981374e-05
-8.680512703135793e-05
-8.680512703135793e-05
-8.680512703135793e-05
-9.231656366826955e-05
-9.507228198672531e-05
-8.956084534981374e-05
-8.404940871290214e-05
-8.404940871290214e-05
-8.956084534981374e-05
-8.956084534981374e-05
-8.680512703135793e-05
-8.129369039444639e-05
-8.129369039444639e-05
-8.956084534981374e-05
-9.507228198672531e-05
-9.78280003051811e-05
-9.231656366826955e-05
-8.680512703135793e-05
-9.231656366826955e-05
-9.507228198672531e-05
-9.78280003051811e-05
-9.231656366826955e-05
-8.956084534981374e-05
-9.231656366826955e-05
-9.507228198672531e-05
-9.507228198672531e-05
-9.231656366826955e-05
-8.680512703135793e-05
-9.507228198672531e-05
-9.78280003051811e-05
-9.78280003051811e-05
-0.00010058371862363688
-9.78280003051811e-05
-9.507228198672531e-05
-0.00010058371862363688
-0.00010058371862363688
-9.78280003051811e-05
-9.507228198672531e-05
-9.507228198672531e-05
-0.00010058371862363688
-0.00010058371862363688
-9.507228198672531e-05
-9.507228198672531e-05
-0.00010058371862363688
-0.00010058371862363688
-9.78280003051811e-05
-9.78280003051811e-05
-9.507228198672531e-05
-9.231656366826955e-05
-9.231656366826955e-05
-8.956084534981374e-05
-8.956084534981374e-05
-8.956084534981374e-05
-9.507228198672531e-05
-0.00010333943694209268
-0.00010609515526054846
-0.00010609515526054846
-9.78280003051811e-05
-9.507228198672531e-05
-9.78280003051811e-05
-0.00010333943694209268
-0.00010333943694209268
-9.78280003051811e-05
-9.507228198672531e-05
-9.78280003051811e-05
-9.78280003051811e-05
-9.507228198672531e-05
-9.231656366826955e-05
-9.507228198672531e-05
-9.507228198672531e-05
-8.956084534981374e-05
-8.956084534981374e-05
-8.680512703135793e-05
-8.129369039444639e-05
-8.129369039444639e-05
-8.129369039444639e-05
-7.85379720759906e-05
-7.302653543907902e-05
-5.6492225528344285e-05
-2.6179324025330647e-05
-9.64501411459592e-06
-6.889295796140132e-06
-2.6179324025330647e-05
-4.5469352254521147e-05
-5.9247943846800084e-05
-7.027081712062322e-05
-6.751509880216745e-05
-5.6492225528344285e-05
-5.3736507209888505e-05
-6.751509880216745e-05
-8.680512703135793e-05
-9.507228198672531e-05
-9.231656366826955e-05
-8.404940871290214e-05
-8.680512703135793e-05
-9.231656366826955e-05
-9.507228198672531e-05
-9.78280003051811e-05
-9.507228198672531e-05
-8.956084534981374e-05
-9.507228198672531e-05
-9.78280003051811e-05
-9.507228198672531e-05
-9.231656366826955e-05
-9.231656366826955e-05
-9.231656366826955e-05
-9.507228198672531e-05
-0.00010058371862363688
-0.00010609515526054846
-0.0001364080567635621
-0.00020254529640650095
-0.00021356816968032413
-0.00012538518348973897
2.066788738841773e-05
0.0002576596627756154
0.0006186587624933234
0.0010402836652170589
0.0012662525673304335
0.0012221610742351409
0.0009961921721217662
0.0007343989318684667
0.0004395370717936973
0.00012262946517128183
-2.342360570687485e-05
-2.8935042343786426e-05
-2.6179324025330647e-05
-2.8935042343786426e-05
-3.995791561760957e-05
-5.098078889143272e-05
-5.6492225528344285e-05
-6.475938048371164e-05
-6.751509880216745e-05
-6.751509880216745e-05
-7.027081712062322e-05
-6.751509880216745e-05
-6.751509880216745e-05
-7.027081712062322e-05
-6.751509880216745e-05
-5.9247943846800084e-05
-5.3736507209888505e-05
-5.6492225528344285e-05
-5.6492225528344285e-05
-5.6492225528344285e-05
-5.3736507209888505e-05
-4.2713633936065354e-05
-3.169076066224221e-05
-2.8935042343786426e-05
-2.8935042343786426e-05
-2.6179324025330647e-05
-2.066788738841907e-05
-1.5156450751507488e-05
-1.5156450751507488e-05
-1.240073243305171e-05
-9.64501411459592e-06
-1.377859159228559e-06
9.64501411459459e-06
9.64501411459459e-06
9.64501411459459e-06
1.7912169069961946e-05
2.3423605706873515e-05
3.444647898069667e-05
4.271363393606403e-05
4.82250705729756e-05
5.098078889143139e-05
6.200366216525454e-05
7.30265354390777e-05
6.751509880216611e-05
6.475938048371032e-05
7.02708171206219e-05
8.404940871290084e-05
9.507228198672396e-05
0.00010333943694209132
0.00011436231021591448
0.00011987374685282605
0.00013089662012664922
0.00013916377508201656
0.00014191949340047234
0.00014743093003738393
0.00015294236667429551
0.00015845380331120705
0.0001694766765850302
0.00017498811322194178
0.00017774383154039756
0.0001832552681773092
0.00018876670481422076
0.00019427814145113231
0.00019427814145113231
0.00019152242313267648
0.00019152242313267648
0.00019427814145113231
0.0001970338597695881
0.00019427814145113231
0.00018601098649576498
0.00018049954985885336
0.00017498811322194178
0.000172232394903486
0.00016672095826657444
0.00015294236667429551
0.00013365233844510492
0.00011436231021591448
9.507228198672396e-05
7.30265354390777e-05
4.82250705729756e-05
2.6179324025329308e-05
4.133577477683014e-06
-1.240073243305171e-05
-2.6179324025330647e-05
-4.8225070572976926e-05
-6.751509880216745e-05
-7.85379720759906e-05
-8.680512703135793e-05
-8.680512703135793e-05
-9.231656366826955e-05
-9.78280003051811e-05
-0.00010333943694209268
-9.78280003051811e-05
-9.231656366826955e-05
-8.956084534981374e-05
-9.231656366826955e-05
-9.507228198672531e-05
-8.956084534981374e-05
-8.680512703135793e-05
-9.231656366826955e-05
-9.78280003051811e-05
-9.78280003051811e-05
-9.231656366826955e-05
-8.404940871290214e-05
-7.85379720759906e-05
-8.129369039444639e-05
-8.404940871290214e-05
-8.129369039444639e-05
-7.57822537575348e-05
-7.85379720759906e-05
-7.85379720759906e-05
-7.85379720759906e-05
-7.302653543907902e-05
-6.751509880216745e-05
-6.751509880216745e-05
-7.027081712062322e-05
-7.302653543907902e-05
-7.027081712062322e-05
-6.751509880216745e-05
-7.027081712062322e-05
-7.302653543907902e-05
-7.57822537575348e-05
-7.57822537575348e-05
-7.027081712062322e-05
-7.027081712062322e-05
-7.85379720759906e-05
-8.404940871290214e-05
-8.129369039444639e-05
-7.85379720759906e-05
-7.85379720759906e-05
-7.85379720759906e-05
-8.129369039444639e-05
-8.680512703135793e-05
-8.129369039444639e-05
-8.129369039444639e-05
-8.404940871290214e-05
-8.680512703135793e-05
-8.956084534981374e-05
-8.680512703135793e-05
-8.129369039444639e-05
-8.129369039444639e-05
-8.956084534981374e-05
-8.956084534981374e-05
-9.231656366826955e-05
-8.956084534981374e-05
-8.680512703135793e-05
-9.231656366826955e-05
-9.78280003051811e-05
-9.231656366826955e-05
-8.680512703135793e-05
-8.129369039444639e-05
-8.680512703135793e-05
-9.231656366826955e-05
-9.507228198672531e-05
-8.956084534981374e-05
-9.231656366826955e-05
-9.231656366826955e-05
-9.78280003051811e-05
-0.00010058371862363688
-9.78280003051811e-05
-8.956084534981374e-05
-8.404940871290214e-05
-8.956084534981374e-05
-8.956084534981374e-05
-8.680512703135793e-05
-8.129369039444639e-05
-8.680512703135793e-05
-8.956084534981374e-05
-8.956084534981374e-05
-8.404940871290214e-05
-7.85379720759906e-05
-8.129369039444639e-05
-8.680512703135793e-05
-9.231656366826955e-05
-8.956084534981374e-05
-8.956084534981374e-05
-8.956084534981374e-05
-9.231656366826955e-05
-8.956084534981374e-05
-8.404940871290214e-05
-8.129369039444639e-05
-8.129369039444639e-05
-7.57822537575348e-05
-7.302653543907902e-05
-7.027081712062322e-05
-6.751509880216745e-05
-6.751509880216745e-05
-6.475938048371164e-05
-5.098078889143272e-05
-2.066788738841907e-05
1.3778591592272275e-06
1.3778591592272275e-06
-1.7912169069963278e-05
-4.2713633936065354e-05
-5.3736507209888505e-05
-5.098078889143272e-05
-5.3736507209888505e-05
-5.6492225528344285e-05
-5.6492225528344285e-05
-6.751509880216745e-05
-8.129369039444639e-05
-8.404940871290214e-05
-8.956084534981374e-05
-9.78280003051811e-05
-0.00010058371862363688
-9.78280003051811e-05
-9.231656366826955e-05
-9.78280003051811e-05
-0.00010333943694209268
-0.00010609515526054846
-0.00010609515526054846
-9.78280003051811e-05
-9.78280003051811e-05
-0.00010058371862363688
-0.00010058371862363688
-9.231656366826955e-05
-8.956084534981374e-05
-9.231656366826955e-05
-9.78280003051811e-05
-0.00010609515526054846
-0.0001364080567635621
-0.00018325526817731047
-0.00017223239490348733
-6.475938048371164e-05
9.782800030517979e-05
0.00031001831082627527
0.0006131473258564118
0.0009631235523002968
0.0010705965667200726
0.0009328106507972832
0.000637948790722514
0.0003844227054245816
0.00015845380331120705
-3.4446478980697995e-05
-9.78280003051811e-05
-7.85379720759906e-05
-3.995791561760957e-05
-2.6179324025330647e-05
-3.995791561760957e-05
-6.475938048371164e-05
-6.475938048371164e-05
-6.200366216525588e-05
-6.475938048371164e-05
-6.200366216525588e-05
-5.9247943846800084e-05
-5.098078889143272e-05
-4.5469352254521147e-05
-4.5469352254521147e-05
-4.8225070572976926e-05
-4.8225070572976926e-05
-4.2713633936065354e-05
-3.4446478980697995e-05
-3.169076066224221e-05
-2.6179324025330647e-05
-2.6179324025330647e-05
-2.6179324025330647e-05
-1.7912169069963278e-05
-1.5156450751507488e-05
-1.5156450751507488e-05
-1.240073243305171e-05
-6.889295796140132e-06
4.133577477683014e-06
9.64501411459459e-06
1.2400732433050376e-05
1.2400732433050376e-05
1.5156450751506162e-05
2.6179324025329308e-05
3.169076066224089e-05
3.444647898069667e-05
3.169076066224089e-05
3.444647898069667e-05
4.271363393606403e-05
5.098078889143139e-05
5.649222552834297e-05
5.9247943846798756e-05
6.200366216525454e-05
6.751509880216611e-05
7.853797207598924e-05
8.68051270313566e-05
8.956084534981241e-05
0.00010058371862363556
0.00011160659189745871
0.0001253851834897376
0.00013365233844510492
0.00013365233844510492
0.00013916377508201656
0.00014743093003738393
0.00016120952162966288
0.0001694766765850302
0.00016396523994811866
0.00016672095826657444
0.0001694766765850302
0.00017498811322194178
0.00018876670481422076
0.0001970338597695881
0.0001970338597695881
0.00019978957808804387
0.00020254529640649968
0.00020254529640649968
0.00019978957808804387
0.00019427814145113231
0.0001970338597695881
0.0001970338597695881
0.0001970338597695881
0.00019427814145113231
0.00017774383154039756
0.00016672095826657444
0.00015294236667429551
0.00013640805676356078
0.00010885087357900291
8.404940871290084e-05
6.200366216525454e-05
4.271363393606403e-05
2.3423605706873515e-05
1.3778591592272275e-06
-2.342360570687485e-05
-4.2713633936065354e-05
-5.098078889143272e-05
-6.200366216525588e-05
-7.57822537575348e-05
-8.680512703135793e-05
-9.507228198672531e-05
-9.507228198672531e-05
-9.231656366826955e-05
-9.231656366826955e-05
-9.507228198672531e-05
-9.231656366826955e-05
-8.956084534981374e-05
-8.404940871290214e-05
-8.129369039444639e-05
-8.680512703135793e-05
-8.956084534981374e-05
-8.956084534981374e-05
-8.129369039444639e-05
-7.85379720759906e-05
-8.129369039444639e-05
-8.404940871290214e-05
-8.680512703135793e-05
-7.85379720759906e-05
-7.302653543907902e-05
-7.57822537575348e-05
-7.57822537575348e-05
-7.57822537575348e-05
-7.302653543907902e-05
-7.027081712062322e-05
-7.027081712062322e-05
-7.57822537575348e-05
-7.57822537575348e-05
-7.027081712062322e-05
-6.475938048371164e-05
-7.027081712062322e-05
-7.57822537575348e-05
-7.57822537575348e-05
-7.302653543907902e-05
-7.027081712062322e-05
-7.027081712062322e-05
-7.57822537575348e-05
-7.85379720759906e-05
-7.57822537575348e-05
-7.302653543907902e-05
-7.302653543907902e-05
-7.57822537575348e-05
-8.129369039444639e-05
-8.129369039444639e-05
-8.129369039444639e-05
-7.85379720759906e-05
-8.404940871290214e-05
-8.956084534981374e-05
-8.956084534981374e-05
-8.680512703135793e-05
-8.680512703135793e-05
-8.956084534981374e-05
-9.231656366826955e-05
-8.956084534981374e-05
-8.404940871290214e-05
-8.680512703135793e-05
-9.507228198672531e-05
-9.231656366826955e-05
-8.680512703135793e-05
-8.680512703135793e-05
-8.956084534981374e-05
-9.507228198672531e-05
-9.231656366826955e-05
-8.680512703135793e-05
-8.129369039444639e-05
-8.129369039444639e-05
-9.231656366826955e-05
-0.00010333943694209268
-0.00010058371862363688
-9.78280003051811e-05
-9.507228198672531e-05
-8.956084534981374e-05
-8.956084534981374e-05
-8.680512703135793e-05
-8.404940871290214e-05
-8.956084534981374e-05
-9.78280003051811e-05
-0.00010058371862363688
-0.00010058371862363688
-9.78280003051811e-05
-9.507228198672531e-05
-0.00010058371862363688
-0.00010333943694209268
-0.00010333943694209268
-0.00010058371862363688
-9.231656366826955e-05
-9.78280003051811e-05
-0.00010333943694209268
-0.00010333943694209268
-0.00010609515526054846
-0.00010058371862363688
-9.78280003051811e-05
-9.78280003051811e-05
-0.00010058371862363688
-0.00010058371862363688
-9.231656366826955e-05
-8.680512703135793e-05
-8.956084534981374e-05
-9.231656366826955e-05
-8.680512703135793e-05
-7.57822537575348e-05
-7.027081712062322e-05
-7.302653543907902e-05
-7.302653543907902e-05
-6.751509880216745e-05
-5.098078889143272e-05
-2.342360570687485e-05
-6.889295796140132e-06
-6.889295796140132e-06
-2.066788738841907e-05
-3.995791561760957e-05
-5.3736507209888505e-05
-6.200366216525588e-05
-6.751509880216745e-05
-6.200366216525588e-05
-5.6492225528344285e-05
-8.129369039444639e-05
-9.231656366826955e-05
-9.78280003051811e-05
-9.507228198672531e-05
-9.231656366826955e-05
-9.507228198672531e-05
-0.00010058371862363688
-0.00010333943694209268
-0.00010609515526054846
-0.00010058371862363688
-9.78280003051811e-05
-0.00010058371862363688
-0.00010058371862363688
-0.00010333943694209268
-0.00010058371862363688
-9.507228198672531e-05
-9.231656366826955e-05
-9.78280003051811e-05
-9.78280003051811e-05
-0.00010058371862363688
-0.00012538518348973897
-0.0001777438315403989
-0.00018049954985885472
-7.302653543907902e-05
9.507228198672396e-05
0.00032104118410009855
0.000637948790722514
0.0010237493553063243
0.0012497182574196988
0.0012111382009613175
0.0009906807354848547
0.0007233760585946433
0.00042024704356450677
0.00010333943694209132
-4.5469352254521147e-05
-4.8225070572976926e-05
-3.169076066224221e-05
-3.995791561760957e-05
-5.6492225528344285e-05
-7.027081712062322e-05
-7.85379720759906e-05
-7.57822537575348e-05
-7.85379720759906e-05
-8.129369039444639e-05
-8.129369039444639e-05
-7.57822537575348e-05
-7.027081712062322e-05
-6.751509880216745e-05
-7.027081712062322e-05
-6.751509880216745e-05
-6.200366216525588e-05
-5.3736507209888505e-05
-5.098078889143272e-05
-4.5469352254521147e-05
-4.2713633936065354e-05
-3.995791561760957e-05
-3.4446478980697995e-05
-3.720219729915378e-05
-4.5469352254521147e-05
-4.5469352254521147e-05
-3.4446478980697995e-05
-2.6179324025330647e-05
-2.066788738841907e-05
-1.7912169069963278e-05
-1.240073243305171e-05
-1.377859159228559e-06
4.133577477683014e-06
4.133577477683014e-06
4.133577477683014e-06
6.8892957961388014e-06
1.7912169069961946e-05
2.3423605706873515e-05
2.6179324025329308e-05
3.444647898069667e-05
3.720219729915245e-05
4.546935225451981e-05
5.373650720988717e-05
5.9247943846798756e-05
6.751509880216611e-05
7.30265354390777e-05
7.578225375753347e-05
8.956084534981241e-05
9.507228198672396e-05
9.782800030517979e-05
0.00010609515526054714
0.00011436231021591448
0.0001253851834897376
0.00013640805676356078
0.00013640805676356078
0.00013916377508201656
0.00014743093003738393
0.00015845380331120705
0.000172232394903486
0.00017774383154039756
0.00017774383154039756
0.0001832552681773092
0.00018876670481422076
0.0001970338597695881
0.00019152242313267648
0.00018601098649576498
0.0001832552681773092
0.0001832552681773092
0.0001832552681773092
0.00018049954985885336
0.00017498811322194178
0.0001694766765850302
0.00016120952162966288
0.0001556980849927513
0.00014191949340047234
0.00012262946517128183
9.782800030517979e-05
7.30265354390777e-05
5.098078889143139e-05
2.6179324025329308e-05
-1.377859159228559e-06
-2.342360570687485e-05
-3.995791561760957e-05
-5.3736507209888505e-05
-6.751509880216745e-05
-7.85379720759906e-05
-8.680512703135793e-05
-9.78280003051811e-05
-0.00010333943694209268
-0.00010333943694209268
-0.00011436231021591582
-0.0001226294651712832
-0.0001198737468528274
-0.0001171180285343716
-0.00010885087357900426
-0.00010609515526054846
-0.00010609515526054846
-9.507228198672531e-05
-9.231656366826955e-05
-9.231656366826955e-05
-0.00010058371862363688
-0.00010333943694209268
-0.00010058371862363688
-9.78280003051811e-05
-9.78280003051811e-05
-0.00010058371862363688
-9.78280003051811e-05
-9.507228198672531e-05
-9.231656366826955e-05
-8.956084534981374e-05
-9.507228198672531e-05
-9.78280003051811e-05
-0.00010058371862363688
-9.78280003051811e-05
-9.507228198672531e-05
-9.231656366826955e-05
-9.231656366826955e-05
-9.507228198672531e-05
-9.507228198672531e-05
-8.956084534981374e-05
-9.507228198672531e-05
-0.00010333943694209268
-0.00010333943694209268
-0.00010058371862363688
-9.231656366826955e-05
-8.956084534981374e-05
-9.507228198672531e-05
-0.00010058371862363688
-0.00010058371862363688
-0.00010058371862363688
-0.00010058371862363688
-0.00010058371862363688
-0.00010333943694209268
-0.00010333943694209268
-0.00010333943694209268
-0.00010058371862363688
-0.00010058371862363688
-0.00010885087357900426
-0.00010885087357900426
-0.00010885087357900426
-0.00010609515526054846
-0.00011160659189746003
-0.00011436231021591582
-0.00011436231021591582
-0.00010885087357900426
-0.00010609515526054846
-0.00010333943694209268
-0.00010609515526054846
-0.00010609515526054846
-0.00010885087357900426
-0.00010333943694209268
-0.00010058371862363688
-9.78280003051811e-05
-9.78280003051811e-05
-0.00010058371862363688
-9.78280003051811e-05
-0.00010333943694209268
-0.00010885087357900426
-0.00011436231021591582
-0.0001171180285343716
-0.00011160659189746003
-0.00010885087357900426
-0.00010333943694209268
-0.00010333943694209268
-9.78280003051811e-05
-9.78280003051811e-05
-0.00010333943694209268
-0.00010609515526054846
-0.00010885087357900426
-0.00010609515526054846
-9.78280003051811e-05
-9.78280003051811e-05
-0.00010333943694209268
-0.00010609515526054846
-0.00010333943694209268
-0.00010058371862363688
-0.00010058371862363688
-0.00010333943694209268
-0.00010333943694209268
-0.00010058371862363688
-9.78280003051811e-05
-9.78280003051811e-05
-0.00010609515526054846
-0.00010609515526054846
-0.00010609515526054846
-0.00010058371862363688
-0.00010058371862363688
-0.00010609515526054846
-0.00010333943694209268
-9.78280003051811e-05
-8.956084534981374e-05
-8.404940871290214e-05
-7.85379720759906e-05
-7.85379720759906e-05
-8.404940871290214e-05
-7.85379720759906e-05
-7.302653543907902e-05
-5.9247943846800084e-05
-3.720219729915378e-05
-1.5156450751507488e-05
-1.7912169069963278e-05
-3.720219729915378e-05
-6.200366216525588e-05
-7.302653543907902e-05
-7.302653543907902e-05
-6.751509880216745e-05
-6.475938048371164e-05
-6.475938048371164e-05
-8.129369039444639e-05
-9.78280003051811e-05
-0.00010058371862363688
-9.507228198672531e-05
-8.680512703135793e-05
-9.231656366826955e-05
-9.78280003051811e-05
-0.00010609515526054846
-0.00011160659189746003
-0.00010885087357900426
-0.00010885087357900426
-0.00010885087357900426
-0.00010885087357900426
-0.00010333943694209268
-9.78280003051811e-05
-9.78280003051811e-05
-0.00010058371862363688
-0.00010058371862363688
-0.00010058371862363688
-0.00010333943694209268
-0.0001612095216296642
-0.0002218353246356915
-0.0002080567330434125
-0.00010333943694209268
6.475938048371032e-05
0.00032379690241855427
0.0006958188754100854
0.001103665186541542
0.0013020769054703587
0.001224916792553597
0.0009906807354848547
0.0007261317769130989
0.0004064684519722279
9.507228198672396e-05
-2.342360570687485e-05
-2.8935042343786426e-05
-2.8935042343786426e-05
-3.720219729915378e-05
-5.098078889143272e-05
-6.200366216525588e-05
-7.027081712062322e-05
-7.027081712062322e-05
-7.302653543907902e-05
-7.57822537575348e-05
-7.57822537575348e-05
-7.57822537575348e-05
-7.57822537575348e-05
-7.302653543907902e-05
-6.751509880216745e-05
-6.200366216525588e-05
-5.6492225528344285e-05
-6.200366216525588e-05
-6.200366216525588e-05
-5.6492225528344285e-05
-4.8225070572976926e-05
-4.2713633936065354e-05
-4.2713633936065354e-05
-4.2713633936065354e-05
-3.995791561760957e-05
-2.8935042343786426e-05
-2.066788738841907e-05
-1.7912169069963278e-05
-1.7912169069963278e-05
-9.64501411459592e-06
-1.377859159228559e-06
4.133577477683014e-06
6.8892957961388014e-06
4.133577477683014e-06
4.133577477683014e-06
9.64501411459459e-06
1.7912169069961946e-05
2.6179324025329308e-05
3.169076066224089e-05
3.720219729915245e-05
4.271363393606403e-05
5.098078889143139e-05
5.649222552834297e-05
5.9247943846798756e-05
6.200366216525454e-05
6.475938048371032e-05
7.02708171206219e-05
7.853797207598924e-05
8.129369039444505e-05
8.404940871290084e-05
8.956084534981241e-05
0.00010609515526054714
0.00010885087357900291
0.00011711802853437029
0.00012814090180819342
0.00013640805676356078
0.00014467521171892812
0.00015018664835583973
0.00015294236667429551
0.00016120952162966288
0.00016672095826657444
0.000172232394903486
0.00017498811322194178
0.000172232394903486
0.0001694766765850302
0.00017498811322194178
0.0001832552681773092
0.00018049954985885336
0.000172232394903486
0.00016396523994811866
0.00016120952162966288
0.00015845380331120705
0.00015018664835583973
0.00013640805676356078
0.00012262946517128183
0.00010609515526054714
9.23165636682682e-05
7.30265354390777e-05
4.82250705729756e-05
2.066788738841773e-05
1.3778591592272275e-06
-1.5156450751507488e-05
-2.8935042343786426e-05
-4.5469352254521147e-05
-6.200366216525588e-05
-7.57822537575348e-05
-8.680512703135793e-05
-9.231656366826955e-05
-0.00010058371862363688
-0.00010609515526054846
-0.00010885087357900426
-0.00010609515526054846
-9.78280003051811e-05
-9.78280003051811e-05
-0.00010333943694209268
-0.00010609515526054846
-0.00010058371862363688
-9.507228198672531e-05
-9.231656366826955e-05
-9.78280003051811e-05
-0.00010058371862363688
-0.00010058371862363688
-9.231656366826955e-05
-8.680512703135793e-05
-8.680512703135793e-05
-9.231656366826955e-05
-9.231656366826955e-05
-8.956084534981374e-05
-8.404940871290214e-05
-8.404940871290214e-05
-8.956084534981374e-05
-9.231656366826955e-05
-8.680512703135793e-05
-8.404940871290214e-05
-8.956084534981374e-05
-9.231656366826955e-05
-9.231656366826955e-05
-8.129369039444639e-05
-7.85379720759906e-05
-7.85379720759906e-05
-8.404940871290214e-05
-8.956084534981374e-05
-8.680512703135793e-05
-8.680512703135793e-05
-9.231656366826955e-05
-9.507228198672531e-05
-9.507228198672531e-05
-8.956084534981374e-05
-8.956084534981374e-05
-9.231656366826955e-05
-9.231656366826955e-05
-8.956084534981374e-05
-8.680512703135793e-05
-8.404940871290214e-05
-8.956084534981374e-05
-9.78280003051811e-05
-0.00010333943694209268
-9.507228198672531e-05
-8.680512703135793e-05
-8.956084534981374e-05
-9.231656366826955e-05
-9.507228198672531e-05
-9.507228198672531e-05
-9.507228198672531e-05
-9.507228198672531e-05
-9.507228198672531e-05
-0.00010058371862363688
-0.00010058371862363688
-9.231656366826955e-05
-9.231656366826955e-05
-9.78280003051811e-05
-0.00010058371862363688
-0.00010058371862363688
-9.507228198672531e-05
-9.231656366826955e-05
-9.231656366826955e-05
-9.78280003051811e-05
-0.00010058371862363688
-9.507228198672531e-05
-9.507228198672531e-05
-9.78280003051811e-05
-9.507228198672531e-05
-9.507228198672531e-05
-8.680512703135793e-05
-8.404940871290214e-05
-8.956084534981374e-05
-9.507228198672531e-05
-9.78280003051811e-05
-9.78280003051811e-05
-9.507228198672531e-05
-9.231656366826955e-05
-9.507228198672531e-05
-9.507228198672531e-05
-9.507228198672531e-05
-8.956084534981374e-05
-8.956084534981374e-05
-9.507228198672531e-05
-9.78280003051811e-05
-9.507228198672531e-05
-8.956084534981374e-05
-8.956084534981374e-05
-9.231656366826955e-05
-9.231656366826955e-05
-8.956084534981374e-05
-8.956084534981374e-05
-9.231656366826955e-05
-9.231656366826955e-05
-9.231656366826955e-05
-8.680512703135793e-05
-7.57822537575348e-05
-7.027081712062322e-05
-7.027081712062322e-05
-7.027081712062322e-05
-7.027081712062322e-05
-7.027081712062322e-05
-6.751509880216745e-05
-6.751509880216745e-05
-5.3736507209888505e-05
-2.066788738841907e-05
-1.377859159228559e-06
-1.5156450751507488e-05
-3.995791561760957e-05
-5.6492225528344285e-05
-6.751509880216745e-05
-6.200366216525588e-05
-5.3736507209888505e-05
-5.3736507209888505e-05
-6.200366216525588e-05
-7.85379720759906e-05
-8.680512703135793e-05
-8.404940871290214e-05
-8.680512703135793e-05
-9.231656366826955e-05
-9.78280003051811e-05
-9.507228198672531e-05
-9.231656366826955e-05
-9.231656366826955e-05
-9.507228198672531e-05
-9.507228198672531e-05
-8.680512703135793e-05
-8.680512703135793e-05
-8.680512703135793e-05
-9.231656366826955e-05
-9.231656366826955e-05
-8.956084534981374e-05
-7.85379720759906e-05
-7.302653543907902e-05
-7.85379720759906e-05
-0.00010885087357900426
-0.00016396523994811996
-0.00018325526817731047
-0.00011160659189746003
1.5156450751506162e-05
0.0002190796063172344
0.0005249643396658268
0.0009355663691157388
0.0011642909895475692
0.0011091766231784534
0.000855650537880521
0.0005911015793087656
0.000340331212329289
8.68051270313566e-05
-4.5469352254521147e-05
-5.3736507209888505e-05
-2.6179324025330647e-05
-1.240073243305171e-05
-2.066788738841907e-05
-3.4446478980697995e-05
-5.6492225528344285e-05
-5.6492225528344285e-05
-5.098078889143272e-05
-4.8225070572976926e-05
-4.8225070572976926e-05
-5.098078889143272e-05
-4.8225070572976926e-05
-3.995791561760957e-05
-3.720219729915378e-05
-3.720219729915378e-05
-3.995791561760957e-05
-3.720219729915378e-05
-2.6179324025330647e-05
-2.6179324025330647e-05
-2.6179324025330647e-05
-2.066788738841907e-05
-1.5156450751507488e-05
-9.64501411459592e-06
-4.133577477684346e-06
1.3778591592272275e-06
4.133577477683014e-06
4.133577477683014e-06
1.2400732433050376e-05
1.7912169069961946e-05
2.066788738841773e-05
2.3423605706873515e-05
2.8935042343785094e-05
3.444647898069667e-05
3.9957915617608246e-05
4.546935225451981e-05
4.82250705729756e-05
5.098078889143139e-05
6.200366216525454e-05
6.751509880216611e-05
7.578225375753347e-05
7.853797207598924e-05
8.129369039444505e-05
8.68051270313566e-05
9.507228198672396e-05
0.00010333943694209132
0.00010885087357900291
0.00011160659189745871
0.00011987374685282605
0.00013089662012664922
0.00014191949340047234
0.00015018664835583973
0.0001556980849927513
0.00015845380331120705
0.00016396523994811866
0.000172232394903486
0.00017774383154039756
0.00018601098649576498
0.00019152242313267648
0.0001970338597695881
0.00020805673304341124
0.00020805673304341124
0.00020254529640649968
0.00020530101472495543
0.00020530101472495543
0.000210812451361867
0.0002135681696803228
0.00020530101472495543
0.00019978957808804387
0.00019427814145113231
0.00019427814145113231
0.00018601098649576498
0.00017498811322194178
0.00015845380331120705
0.00014467521171892812
0.00012814090180819342
0.00010333943694209132
7.30265354390777e-05
5.098078889143139e-05
3.720219729915245e-05
1.7912169069961946e-05
-6.889295796140132e-06
-2.8935042343786426e-05
-4.2713633936065354e-05
-5.098078889143272e-05
-5.6492225528344285e-05
-6.751509880216745e-05
-7.57822537575348e-05
-8.404940871290214e-05
-8.956084534981374e-05
-9.231656366826955e-05
-8.680512703135793e-05
-8.129369039444639e-05
-7.85379720759906e-05
-7.85379720759906e-05
-7.302653543907902e-05
-7.027081712062322e-05
-7.57822537575348e-05
-8.404940871290214e-05
-8.404940871290214e-05
-8.404940871290214e-05
-8.129369039444639e-05
-7.85379720759906e-05
-7.85379720759906e-05
-7.57822537575348e-05
-7.027081712062322e-05
-6.475938048371164e-05
-6.475938048371164e-05
-6.751509880216745e-05
-6.475938048371164e-05
-5.9247943846800084e-05
-5.098078889143272e-05
-4.8225070572976926e-05
-5.098078889143272e-05
-5.098078889143272e-05
-5.098078889143272e-05
-4.8225070572976926e-05
-4.8225070572976926e-05
-5.6492225528344285e-05
-5.9247943846800084e-05
-5.9247943846800084e-05
-5.098078889143272e-05
-4.2713633936065354e-05
-4.2713633936065354e-05
-4.8225070572976926e-05
-5.098078889143272e-05
-4.8225070572976926e-05
-5.098078889143272e-05
-5.3736507209888505e-05
-6.475938048371164e-05
-7.302653543907902e-05
-6.751509880216745e-05
-6.475938048371164e-05
-6.751509880216745e-05
-7.302653543907902e-05
-7.302653543907902e-05
-6.751509880216745e-05
-6.475938048371164e-05
-7.027081712062322e-05
-7.302653543907902e-05
-6.751509880216745e-05
-6.200366216525588e-05
-6.475938048371164e-05
-7.027081712062322e-05
-7.302653543907902e-05
-7.302653543907902e-05
-7.027081712062322e-05
-6.751509880216745e-05
-7.027081712062322e-05
-7.302653543907902e-05
-7.302653543907902e-05
-7.027081712062322e-05
-6.751509880216745e-05
-6.751509880216745e-05
-7.027081712062322e-05
-7.302653543907902e-05
-7.027081712062322e-05
-6.751509880216745e-05
-7.302653543907902e-05
-7.85379720759906e-05
-7.85379720759906e-05
-7.302653543907902e-05
-6.751509880216745e-05
-6.751509880216745e-05
-6.751509880216745e-05
-6.751509880216745e-05
-6.200366216525588e-05
-6.200366216525588e-05
-6.751509880216745e-05
-7.027081712062322e-05
-6.751509880216745e-05
-6.475938048371164e-05
-6.200366216525588e-05
-6.751509880216745e-05
-7.57822537575348e-05
-7.85379720759906e-05
-7.57822537575348e-05
-7.027081712062322e-05
-6.751509880216745e-05
-7.027081712062322e-05
-7.57822537575348e-05
-7.302653543907902e-05
-5.9247943846800084e-05
-5.098078889143272e-05
-5.6492225528344285e-05
-5.9247943846800084e-05
-5.3736507209888505e-05
-4.2713633936065354e-05
-1.240073243305171e-05
1.2400732433050376e-05
1.5156450751506162e-05
-1.377859159228559e-06
-2.066788738841907e-05
-3.169076066224221e-05
-3.995791561760957e-05
-4.5469352254521147e-05
-3.995791561760957e-05
-3.4446478980697995e-05
-3.995791561760957e-05
-5.3736507209888505e-05
-6.751509880216745e-05
-7.302653543907902e-05
-6.751509880216745e-05
-6.751509880216745e-05
-7.57822537575348e-05
-7.57822537575348e-05
-7.85379720759906e-05
-7.85379720759906e-05
-7.302653543907902e-05
-7.57822537575348e-05
-7.57822537575348e-05
-7.57822537575348e-05
-7.302653543907902e-05
-7.302653543907902e-05
-7.57822537575348e-05
-7.85379720759906e-05
-7.57822537575348e-05
-7.85379720759906e-05
-8.956084534981374e-05
-0.0001364080567635621
-0.00016672095826657574
-9.507228198672531e-05
5.373650720988717e-05
0.00024388107118333642
0.00048362856488898997
0.0008418719462882423
0.0011146880598153653
0.0011119323414969095
0.0008942305943389022
0.0006186587624933234
0.00036788839551384685
0.00011987374685282605
-3.995791561760957e-05
-6.475938048371164e-05
-2.342360570687485e-05
-1.377859159228559e-06
-6.889295796140132e-06
-2.066788738841907e-05
-3.169076066224221e-05
-3.169076066224221e-05
-3.4446478980697995e-05
-3.720219729915378e-05
-3.720219729915378e-05
-3.4446478980697995e-05
-2.8935042343786426e-05
-2.8935042343786426e-05
-2.8935042343786426e-05
-2.6179324025330647e-05
-1.7912169069963278e-05
-1.240073243305171e-05
-9.64501411459592e-06
-1.240073243305171e-05
-1.240073243305171e-05
-4.133577477684346e-06
4.133577477683014e-06
9.64501411459459e-06
6.8892957961388014e-06
6.8892957961388014e-06
1.2400732433050376e-05
1.7912169069961946e-05
2.3423605706873515e-05
2.6179324025329308e-05
2.8935042343785094e-05
3.720219729915245e-05
4.546935225451981e-05
5.373650720988717e-05
5.649222552834297e-05
4.82250705729756e-05
6.200366216525454e-05
7.02708171206219e-05
7.578225375753347e-05
7.02708171206219e-05
7.02708171206219e-05
7.853797207598924e-05
9.23165636682682e-05
9.782800030517979e-05
0.00010058371862363556
0.00010058371862363556
0.00011160659189745871
0.0001253851834897376
0.00013089662012664922
0.00013640805676356078
0.00014191949340047234
0.00014743093003738393
0.00016120952162966288
0.000172232394903486
0.00017498811322194178
0.00018049954985885336
0.00018601098649576498
0.00018876670481422076
0.0001970338597695881
0.00020530101472495543
0.00020805673304341124
0.000210812451361867
0.0002218353246356902
0.00023010247959105753
0.00022734676127260172
0.0002218353246356902
0.0002190796063172344
0.0002190796063172344
0.00022734676127260172
0.00022734676127260172
0.00021632388799877858
0.000210812451361867
0.00020805673304341124
0.00019978957808804387
0.0001832552681773092
0.00016120952162966288
0.00013640805676356078
0.00010885087357900291
8.404940871290084e-05
6.475938048371032e-05
3.9957915617608246e-05
1.5156450751506162e-05
-6.889295796140132e-06
-2.342360570687485e-05
-3.169076066224221e-05
-3.995791561760957e-05
-5.098078889143272e-05
-6.200366216525588e-05
-6.751509880216745e-05
-7.027081712062322e-05
-7.302653543907902e-05
-7.85379720759906e-05
-8.129369039444639e-05
-7.85379720759906e-05
-7.85379720759906e-05
-7.85379720759906e-05
-8.129369039444639e-05
-8.404940871290214e-05
-8.129369039444639e-05
-7.302653543907902e-05
-7.027081712062322e-05
-7.302653543907902e-05
-6.751509880216745e-05
-6.475938048371164e-05
-5.9247943846800084e-05
-6.200366216525588e-05
-6.475938048371164e-05
-6.751509880216745e-05
-6.200366216525588e-05
-5.9247943846800084e-05
-6.200366216525588e-05
-6.475938048371164e-05
-7.027081712062322e-05
-6.200366216525588e-05
-5.6492225528344285e-05
-5.6492225528344285e-05
-6.200366216525588e-05
-6.200366216525588e-05
-5.6492225528344285e-05
-5.098078889143272e-05
-5.3736507209888505e-05
-5.6492225528344285e-05
-5.3736507209888505e-05
-5.6492225528344285e-05
-5.3736507209888505e-05
-5.3736507209888505e-05
-5.6492225528344285e-05
-5.9247943846800084e-05
-6.200366216525588e-05
-5.6492225528344285e-05
-5.6492225528344285e-05
-6.475938048371164e-05
-6.475938048371164e-05
-6.475938048371164e-05
-5.9247943846800084e-05
-5.6492225528344285e-05
-5.9247943846800084e-05
-6.200366216525588e-05
-6.475938048371164e-05
-6.475938048371164e-05
-6.200366216525588e-05
-6.751509880216745e-05
-7.85379720759906e-05
-7.85379720759906e-05
-7.302653543907902e-05
-6.475938048371164e-05
-6.751509880216745e-05
-7.302653543907902e-05
-7.57822537575348e-05
-7.57822537575348e-05
-6.751509880216745e-05
-6.751509880216745e-05
-7.302653543907902e-05
-7.302653543907902e-05
-7.85379720759906e-05
-7.57822537575348e-05
-7.302653543907902e-05
-7.57822537575348e-05
-8.129369039444639e-05
-8.129369039444639e-05
-7.302653543907902e-05
-7.302653543907902e-05
-7.57822537575348e-05
-7.85379720759906e-05
-7.57822537575348e-05
-7.302653543907902e-05
-6.751509880216745e-05
-7.57822537575348e-05
-7.57822537575348e-05
-7.85379720759906e-05
-7.027081712062322e-05
-7.027081712062322e-05
-7.57822537575348e-05
-7.57822537575348e-05
-7.57822537575348e-05
-7.027081712062322e-05
-7.027081712062322e-05
-7.302653543907902e-05
-7.57822537575348e-05
-7.57822537575348e-05
-7.302653543907902e-05
-6.751509880216745e-05
-7.302653543907902e-05
-7.302653543907902e-05
-7.57822537575348e-05
-7.027081712062322e-05
-6.475938048371164e-05
-6.751509880216745e-05
-6.475938048371164e-05
-5.9247943846800084e-05
-5.3736507209888505e-05
-4.8225070572976926e-05
-4.8225070572976926e-05
-5.098078889143272e-05
-5.9247943846800084e-05
-5.3736507209888505e-05
-3.995791561760957e-05
-2.8935042343786426e-05
-9.64501411459592e-06
1.7912169069961946e-05
2.066788738841773e-05
-4.133577477684346e-06
-2.8935042343786426e-05
-3.995791561760957e-05
-4.8225070572976926e-05
-4.5469352254521147e-05
-3.4446478980697995e-05
-3.169076066224221e-05
-4.8225070572976926e-05
-6.475938048371164e-05
-7.302653543907902e-05
-7.027081712062322e-05
-6.751509880216745e-05
-6.751509880216745e-05
-7.57822537575348e-05
-8.129369039444639e-05
-7.57822537575348e-05
-7.302653543907902e-05
-7.027081712062322e-05
-7.57822537575348e-05
-7.57822537575348e-05
-7.57822537575348e-05
-6.475938048371164e-05
-5.6492225528344285e-05
-6.200366216525588e-05
-6.751509880216745e-05
-6.751509880216745e-05
-6.475938048371164e-05
-8.404940871290214e-05
-0.00012814090180819475
-0.00017223239490348733
-0.00012814090180819475
0.0001970338597695881
0.0004533156633859763
0.0008198261997405958
0.001180825299458304
0.0013268783703364606
0.0012138939192797731
0.000971390707255664
0.000687551720454718
0.0003596212405584795
8.404940871290084e-05
-1.377859159228559e-06
1.3778591592272275e-06
1.3778591592272275e-06
-6.889295796140132e-06
-2.066788738841907e-05
-2.8935042343786426e-05
-3.4446478980697995e-05
-4.2713633936065354e-05
-4.8225070572976926e-05
-4.5469352254521147e-05
-3.4446478980697995e-05
-3.169076066224221e-05
-3.4446478980697995e-05
-3.720219729915378e-05
-3.720219729915378e-05
-3.4446478980697995e-05
-2.8935042343786426e-05
-2.8935042343786426e-05
-2.8935042343786426e-05
-2.6179324025330647e-05
-1.5156450751507488e-05
-4.133577477684346e-06
-6.889295796140132e-06
-9.64501411459592e-06
-6.889295796140132e-06
-1.377859159228559e-06
6.8892957961388014e-06
9.64501411459459e-06
9.64501411459459e-06
1.2400732433050376e-05
2.3423605706873515e-05
3.169076066224089e-05
3.444647898069667e-05
3.720219729915245e-05
3.9957915617608246e-05
4.271363393606403e-05
5.373650720988717e-05
6.200366216525454e-05
6.200366216525454e-05
6.475938048371032e-05
6.751509880216611e-05
7.578225375753347e-05
8.404940871290084e-05
8.68051270313566e-05
9.23165636682682e-05
9.507228198672396e-05
0.00010058371862363556
0.00011160659189745871
0.00011436231021591448
0.00011711802853437029
0.00012262946517128183
0.00013365233844510492
0.00015018664835583973
0.00015845380331120705
0.00016120952162966288
0.00016672095826657444
0.00018601098649576498
0.0001970338597695881
0.00019978957808804387
0.00019978957808804387
0.00020530101472495543
0.0002135681696803228
0.00021632388799877858
0.00021632388799877858
0.0002135681696803228
0.0002135681696803228
0.00021632388799877858
0.00021632388799877858
0.0002135681696803228
0.00020805673304341124
0.00019978957808804387
0.00019978957808804387
0.00019427814145113231
0.00018049954985885336
0.00016396523994811866
0.00013916377508201656
0.00011436231021591448
9.23165636682682e-05
6.751509880216611e-05
4.271363393606403e-05
1.7912169069961946e-05
1.3778591592272275e-06
-9.64501411459592e-06
-2.8935042343786426e-05
-4.8225070572976926e-05
-6.200366216525588e-05
-6.751509880216745e-05
-7.027081712062322e-05
-7.302653543907902e-05
-7.85379720759906e-05
-8.129369039444639e-05
-8.129369039444639e-05
-7.57822537575348e-05
-7.302653543907902e-05
-7.57822537575348e-05
-7.85379720759906e-05
-7.85379720759906e-05
-7.302653543907902e-05
-7.027081712062322e-05
-7.302653543907902e-05
-7.85379720759906e-05
-8.129369039444639e-05
-7.302653543907902e-05
-6.475938048371164e-05
-6.475938048371164e-05
-5.9247943846800084e-05
-5.6492225528344285e-05
-5.9247943846800084e-05
-6.200366216525588e-05
-6.751509880216745e-05
-7.57822537575348e-05
-7.85379720759906e-05
-7.302653543907902e-05
-7.027081712062322e-05
-7.027081712062322e-05
-6.751509880216745e-05
-7.027081712062322e-05
-7.027081712062322e-05
-6.751509880216745e-05
-6.200366216525588e-05
-6.475938048371164e-05
-7.027081712062322e-05
-6.475938048371164e-05
-6.200366216525588e-05
-6.751509880216745e-05
-7.027081712062322e-05
-7.027081712062322e-05
-6.475938048371164e-05
-6.200366216525588e-05
-6.200366216525588e-05
-6.751509880216745e-05
-7.57822537575348e-05
-7.302653543907902e-05
-6.751509880216745e-05
-6.751509880216745e-05
-7.302653543907902e-05
-7.85379720759906e-05
-7.85379720759906e-05
-7.302653543907902e-05
-7.85379720759906e-05
-8.404940871290214e-05
-8.404940871290214e-05
-8.404940871290214e-05
-8.404940871290214e-05
-8.404940871290214e-05
-8.680512703135793e-05
-8.680512703135793e-05
-8.680512703135793e-05
-8.129369039444639e-05
-8.129369039444639e-05
-8.680512703135793e-05
-8.680512703135793e-05
-8.404940871290214e-05
-8.129369039444639e-05
-8.129369039444639e-05
-8.404940871290214e-05
-8.956084534981374e-05
-8.956084534981374e-05
-8.129369039444639e-05
-8.129369039444639e-05
-8.404940871290214e-05
-8.129369039444639e-05
-8.404940871290214e-05
-8.129369039444639e-05
-8.129369039444639e-05
-8.129369039444639e-05
-8.404940871290214e-05
-8.680512703135793e-05
-8.680512703135793e-05
-8.129369039444639e-05
-7.85379720759906e-05
-8.129369039444639e-05
-8.680512703135793e-05
-8.680512703135793e-05
-8.680512703135793e-05
-8.129369039444639e-05
-7.85379720759906e-05
-8.404940871290214e-05
-8.404940871290214e-05
-8.129369039444639e-05
-8.129369039444639e-05
-8.680512703135793e-05
-8.956084534981374e-05
-8.680512703135793e-05
-8.404940871290214e-05
-7.85379720759906e-05
-7.85379720759906e-05
-8.404940871290214e-05
-7.85379720759906e-05
-7.027081712062322e-05
-7.027081712062322e-05
-7.302653543907902e-05
-7.302653543907902e-05
-7.027081712062322e-05
-6.200366216525588e-05
-5.9247943846800084e-05
-5.6492225528344285e-05
-3.995791561760957e-05
-1.240073243305171e-05
-1.377859159228559e-06
-1.240073243305171e-05
-3.995791561760957e-05
-5.6492225528344285e-05
-6.200366216525588e-05
-4.5469352254521147e-05
-3.720219729915378e-05
-3.995791561760957e-05
-5.3736507209888505e-05
-7.302653543907902e-05
-8.404940871290214e-05
-8.129369039444639e-05
-8.129369039444639e-05
-8.680512703135793e-05
-8.956084534981374e-05
-8.680512703135793e-05
-8.956084534981374e-05
-9.231656366826955e-05
-9.507228198672531e-05
-9.231656366826955e-05
-8.680512703135793e-05
-7.85379720759906e-05
-7.57822537575348e-05
-7.85379720759906e-05
-7.85379720759906e-05
-7.57822537575348e-05
-7.57822537575348e-05
-8.404940871290214e-05
-0.00010333943694209268
-0.00014743093003738526
-0.0001997895780880452
-0.00016947667658503157
-5.3736507209888505e-05
0.00011711802853437029
0.00037891126878767
0.0007647118333714802
0.0011615352712291134
0.001321366933699549
0.0012083824826428621
0.0009658792706187528
0.0006985745937285414
0.0003733998321507585
8.129369039444505e-05
-1.7912169069963278e-05
-2.066788738841907e-05
-1.7912169069963278e-05
-2.6179324025330647e-05
-3.720219729915378e-05
-5.098078889143272e-05
-6.200366216525588e-05
-6.751509880216745e-05
-7.027081712062322e-05
-7.027081712062322e-05
-6.475938048371164e-05
-6.475938048371164e-05
-6.475938048371164e-05
-6.200366216525588e-05
-5.6492225528344285e-05
-5.6492225528344285e-05
-5.6492225528344285e-05
-5.098078889143272e-05
-4.2713633936065354e-05
-3.720219729915378e-05
-3.995791561760957e-05
-3.995791561760957e-05
-3.720219729915378e-05
-3.4446478980697995e-05
-2.6179324025330647e-05
-2.066788738841907e-05
-2.342360570687485e-05
-2.066788738841907e-05
-1.5156450751507488e-05
-6.889295796140132e-06
-4.133577477684346e-06
-1.377859159228559e-06
4.133577477683014e-06
1.2400732433050376e-05
2.066788738841773e-05
2.3423605706873515e-05
2.6179324025329308e-05
3.169076066224089e-05
3.9957915617608246e-05
5.373650720988717e-05
5.9247943846798756e-05
5.373650720988717e-05
5.373650720988717e-05
5.649222552834297e-05
6.200366216525454e-05
7.02708171206219e-05
7.30265354390777e-05
8.129369039444505e-05
8.68051270313566e-05
9.507228198672396e-05
0.00010885087357900291
0.00011160659189745871
0.00011711802853437029
0.0001253851834897376
0.00013916377508201656
0.00015018664835583973
0.0001556980849927513
0.00015845380331120705
0.00016396523994811866
0.00016672095826657444
0.000172232394903486
0.00017498811322194178
0.000172232394903486
0.00017498811322194178
0.00017498811322194178
0.00017774383154039756
0.00018049954985885336
0.00017498811322194178
0.000172232394903486
0.00017498811322194178
0.0001694766765850302
0.00016672095826657444
0.00015845380331120705
0.00014467521171892812
0.00012814090180819342
0.00011160659189745871
7.30265354390777e-05
4.546935225451981e-05
1.5156450751506162e-05
-9.64501411459592e-06
-3.169076066224221e-05
-5.3736507209888505e-05
-7.302653543907902e-05
-8.956084534981374e-05
-0.00010058371862363688
-0.00010609515526054846
-0.00011160659189746003
-0.0001171180285343716
-0.0001198737468528274
-0.0001226294651712832
-0.0001171180285343716
-0.00011436231021591582
-0.00011436231021591582
-0.0001171180285343716
-0.0001171180285343716
-0.00011160659189746003
-0.00010609515526054846
-0.00011160659189746003
-0.0001171180285343716
-0.0001198737468528274
-0.0001171180285343716
-0.00010885087357900426
-0.00010885087357900426
-0.00010885087357900426
-0.00011436231021591582
-0.00011436231021591582
-0.00010885087357900426
-0.00010885087357900426
-0.00011160659189746003
-0.00011160659189746003
-0.00011160659189746003
-0.00010885087357900426
-0.00010609515526054846
-0.00010885087357900426
-0.00010885087357900426
-0.00011436231021591582
-0.00010885087357900426
-0.00010333943694209268
-0.00010885087357900426
-0.00011436231021591582
-0.00011160659189746003
-0.00010885087357900426
-0.00010609515526054846
-0.00010885087357900426
-0.00010885087357900426
-0.00010609515526054846
-0.00010058371862363688
-9.231656366826955e-05
-9.507228198672531e-05
-0.00010885087357900426
-0.00011160659189746003
-0.00011160659189746003
-0.00010885087357900426
-0.00011160659189746003
-0.0001198737468528274
-0.00012538518348973897
-0.0001198737468528274
-0.00010885087357900426
-0.00011436231021591582
-0.0001226294651712832
-0.0001226294651712832
-0.00011436231021591582
-0.00011160659189746003
-0.00011160659189746003
-0.0001198737468528274
-0.0001226294651712832
-0.0001171180285343716
-0.00011160659189746003
-0.0001171180285343716
-0.0001198737468528274
-0.0001198737468528274
-0.0001198737468528274
-0.0001171180285343716
-0.0001226294651712832
-0.00012814090180819475
-0.00012814090180819475
-0.0001226294651712832
-0.0001198737468528274
-0.0001226294651712832
-0.00012814090180819475
-0.00012814090180819475
-0.00012538518348973897
-0.0001198737468528274
-0.0001198737468528274
-0.0001226294651712832
-0.00012538518348973897
-0.0001226294651712832
-0.0001198737468528274
-0.0001226294651712832
-0.0001226294651712832
-0.0001198737468528274
-0.0001171180285343716
-0.00011436231021591582
-0.00010885087357900426
-0.00011160659189746003
-0.0001198737468528274
-0.0001226294651712832
-0.0001198737468528274
-0.00011436231021591582
-0.00011436231021591582
-0.0001171180285343716
-0.00011436231021591582
-0.00010885087357900426
-0.00010333943694209268
-0.00010333943694209268
-0.00010333943694209268
-0.00010609515526054846
-0.00010609515526054846
-9.78280003051811e-05
-9.78280003051811e-05
-9.507228198672531e-05
-9.231656366826955e-05
-8.680512703135793e-05
-6.475938048371164e-05
-3.4446478980697995e-05
-2.342360570687485e-05
-3.720219729915378e-05
-5.9247943846800084e-05
-7.302653543907902e-05
-7.57822537575348e-05
-8.129369039444639e-05
-7.85379720759906e-05
-7.302653543907902e-05
-8.129369039444639e-05
-9.507228198672531e-05
-0.00010609515526054846
-0.00010885087357900426
-0.00010609515526054846
-0.00010609515526054846
-0.00011160659189746003
-0.00011436231021591582
-0.00012538518348973897
-0.00012538518348973897
-0.0001226294651712832
-0.00012538518348973897
-0.00012814090180819475
-0.00012538518348973897
-0.0001226294651712832
-0.0001171180285343716
-0.00011436231021591582
-0.00011436231021591582
-0.0001171180285343716
-0.00012538518348973897
-0.0001364080567635621
-0.0001777438315403989
-0.0002108124513618684
-0.000150186648355841
-1.240073243305171e-05
0.00017498811322194178
0.00042300276188296266
0.0007784904249637591
0.001037527946898603
0.0010237493553063243
0.0007977804531929496
0.0005111857480735478
0.0002686825360494386
3.444647898069667e-05
-9.507228198672531e-05
-0.00010885087357900426
-7.302653543907902e-05
-4.8225070572976926e-05
-5.098078889143272e-05
-6.475938048371164e-05
-7.302653543907902e-05
-7.57822537575348e-05
-8.129369039444639e-05
-8.404940871290214e-05
-8.956084534981374e-05
-8.680512703135793e-05
-7.85379720759906e-05
-7.302653543907902e-05
-7.027081712062322e-05
-6.475938048371164e-05
-6.751509880216745e-05
-6.200366216525588e-05
-5.6492225528344285e-05
-5.6492225528344285e-05
-5.3736507209888505e-05
-5.098078889143272e-05
-4.2713633936065354e-05
-3.4446478980697995e-05
-3.720219729915378e-05
-4.2713633936065354e-05
-3.995791561760957e-05
-2.8935042343786426e-05
-2.066788738841907e-05
-1.5156450751507488e-05
-1.5156450751507488e-05
-9.64501411459592e-06
-6.889295796140132e-06
-4.133577477684346e-06
1.3778591592272275e-06
9.64501411459459e-06
1.5156450751506162e-05
2.3423605706873515e-05
2.6179324025329308e-05
2.8935042343785094e-05
3.720219729915245e-05
4.271363393606403e-05
5.373650720988717e-05
6.475938048371032e-05
6.751509880216611e-05
6.751509880216611e-05
6.751509880216611e-05
7.853797207598924e-05
8.68051270313566e-05
9.23165636682682e-05
9.507228198672396e-05
0.00010333943694209132
0.00011711802853437029
0.00012814090180819342
0.00013365233844510492
0.00013916377508201656
0.00014467521171892812
0.0001556980849927513
0.00016672095826657444
0.000172232394903486
0.000172232394903486
0.000172232394903486
0.00017774383154039756
0.00018876670481422076
0.00018601098649576498
0.00018049954985885336
0.00018049954985885336
0.00017774383154039756
0.00017774383154039756
0.00017774383154039756
0.0001694766765850302
0.00016396523994811866
0.0001556980849927513
0.00014467521171892812
0.00013365233844510492
0.00011711802853437029
8.956084534981241e-05
6.751509880216611e-05
5.098078889143139e-05
3.444647898069667e-05
6.8892957961388014e-06
-2.6179324025330647e-05
-5.3736507209888505e-05
-7.302653543907902e-05
-8.404940871290214e-05
-9.231656366826955e-05
-0.00010333943694209268
-0.00010885087357900426
-0.00011436231021591582
-0.00011436231021591582
-0.0001198737468528274
-0.00013089662012665053
-0.0001336523384451063
-0.00012814090180819475
-0.0001198737468528274
-0.0001171180285343716
-0.00012538518348973897
-0.0001336523384451063
-0.00013089662012665053
-0.0001226294651712832
-0.0001198737468528274
-0.00012538518348973897
-0.00012538518348973897
-0.0001198737468528274
-0.0001171180285343716
-0.00011436231021591582
-0.00011436231021591582
-0.00011436231021591582
-0.00010885087357900426
-0.00010333943694209268
-0.00010333943694209268
-0.00011160659189746003
-0.00011436231021591582
-0.00011160659189746003
-0.00010609515526054846
-0.00010333943694209268
-0.00010609515526054846
-0.00010885087357900426
-0.00011436231021591582
-0.00010885087357900426
-0.00010609515526054846
-0.00010609515526054846
-0.00010885087357900426
-0.00010885087357900426
-0.00010885087357900426
-0.00010609515526054846
-0.00011160659189746003
-0.0001171180285343716
-0.00011436231021591582
-0.00011160659189746003
-0.00011160659189746003
-0.00011160659189746003
-0.0001198737468528274
-0.0001226294651712832
-0.0001198737468528274
-0.0001198737468528274
-0.0001198737468528274
-0.0001226294651712832
-0.0001226294651712832
-0.0001198737468528274
-0.0001171180285343716
-0.00011436231021591582
-0.0001171180285343716
-0.0001226294651712832
-0.00012814090180819475
-0.00013089662012665053
-0.00012538518348973897
-0.00012538518348973897
-0.00012538518348973897
-0.00012538518348973897
-0.00012814090180819475
-0.00012814090180819475
-0.00013089662012665053
-0.0001336523384451063
-0.0001336523384451063
-0.0001364080567635621
-0.0001336523384451063
-0.0001364080567635621
-0.0001391637750820179
-0.0001364080567635621
-0.0001364080567635621
-0.00013089662012665053
-0.00013089662012665053
-0.0001336523384451063
-0.0001364080567635621
-0.0001364080567635621
-0.0001336523384451063
-0.0001391637750820179
-0.00014191949340047367
-0.00014191949340047367
-0.0001364080567635621
-0.0001336523384451063
-0.0001391637750820179
-0.00014191949340047367
-0.00014467521171892948
-0.0001391637750820179
-0.00012814090180819475
-0.00012538518348973897
-0.00012814090180819475
-0.00012538518348973897
-0.0001198737468528274
-0.00011436231021591582
-0.00010885087357900426
-0.00010609515526054846
-0.00010885087357900426
-0.00010333943694209268
-9.78280003051811e-05
-8.680512703135793e-05
-6.475938048371164e-05
-4.5469352254521147e-05
-4.5469352254521147e-05
-5.3736507209888505e-05
-7.302653543907902e-05
-9.231656366826955e-05
-0.00010333943694209268
-0.00010333943694209268
-9.507228198672531e-05
-8.956084534981374e-05
-0.00010609515526054846
-0.0001171180285343716
-0.00013089662012665053
-0.00013089662012665053
-0.00013089662012665053
-0.0001391637750820179
-0.00014467521171892948
-0.00014743093003738526
-0.00014191949340047367
-0.0001364080567635621
-0.00014191949340047367
-0.00014743093003738526
-0.00014743093003738526
-0.00014191949340047367
-0.0001391637750820179
-0.0001391637750820179
-0.00014191949340047367
-0.00014191949340047367
-0.0001391637750820179
-0.0001336523384451063
-0.0001336523384451063
-0.00016672095826657574
-0.00021632388799877996
-0.0002080567330434125
-9.507228198672531e-05
7.578225375753347e-05
0.00029623971923399637
0.0006103916075379561
0.0009906807354848547
0.0011918481727321271
0.001125710933089188
0.0008832077210650791
0.0006103916075379561
0.00031001831082627527
-9.231656366826955e-05
-8.956084534981374e-05
-7.302653543907902e-05
-7.302653543907902e-05
-8.404940871290214e-05
-8.956084534981374e-05
-0.00010058371862363688
-0.00010885087357900426
-0.00010885087357900426
-0.00010885087357900426
-0.00010609515526054846
-0.00010058371862363688
-0.00010058371862363688
-0.00010333943694209268
-0.00010058371862363688
-9.231656366826955e-05
-9.231656366826955e-05
-9.231656366826955e-05
-8.956084534981374e-05
-8.680512703135793e-05
-8.129369039444639e-05
-7.57822537575348e-05
-7.302653543907902e-05
-7.027081712062322e-05
-6.751509880216745e-05
-6.200366216525588e-05
-5.6492225528344285e-05
-5.3736507209888505e-05
-5.098078889143272e-05
-4.8225070572976926e-05
-3.995791561760957e-05
-2.8935042343786426e-05
-3.169076066224221e-05
-2.8935042343786426e-05
-2.342360570687485e-05
-1.7912169069963278e-05
-9.64501411459592e-06
-6.889295796140132e-06
-6.889295796140132e-06
-1.377859159228559e-06
4.133577477683014e-06
1.5156450751506162e-05
2.066788738841773e-05
2.3423605706873515e-05
2.6179324025329308e-05
3.169076066224089e-05
4.271363393606403e-05
5.373650720988717e-05
5.373650720988717e-05
5.9247943846798756e-05
7.02708171206219e-05
8.404940871290084e-05
9.23165636682682e-05
9.507228198672396e-05
9.782800030517979e-05
0.00010885087357900291
0.00011987374685282605
0.00013089662012664922
0.00013365233844510492
0.00013640805676356078
0.00014467521171892812
0.0001556980849927513
0.00016672095826657444
0.00016396523994811866
0.00016120952162966288
0.00016396523994811866
0.00016396523994811866
0.00016120952162966288
0.00015845380331120705
0.00015294236667429551
0.00015018664835583973
0.00014743093003738393
0.00014191949340047234
0.0001253851834897376
0.00010609515526054714
8.68051270313566e-05
6.475938048371032e-05
3.720219729915245e-05
9.64501411459459e-06
-2.066788738841907e-05
-4.5469352254521147e-05
-6.475938048371164e-05
-8.129369039444639e-05
-9.78280003051811e-05
-0.00011436231021591582
-0.00013089662012665053
-0.0001336523384451063
-0.0001336523384451063
-0.0001391637750820179
-0.00014191949340047367
-0.00014467521171892948
-0.000150186648355841
-0.000150186648355841
-0.00014191949340047367
-0.00014191949340047367
-0.00014467521171892948
-0.00014467521171892948
-0.00014191949340047367
-0.0001391637750820179
-0.0001391637750820179
-0.00014191949340047367
-0.00014191949340047367
-0.0001364080567635621
-0.0001364080567635621
-0.0001364080567635621
-0.0001364080567635621
-0.0001364080567635621
-0.0001364080567635621
-0.00012814090180819475
-0.00012538518348973897
-0.00013089662012665053
-0.0001336523384451063
-0.0001336523384451063
-0.00012538518348973897
-0.0001226294651712832
-0.00012814090180819475
-0.00013089662012665053
-0.00012814090180819475
-0.0001198737468528274
-0.0001198737468528274
-0.00012814090180819475
-0.00013089662012665053
-0.00012814090180819475
-0.0001226294651712832
-0.0001198737468528274
-0.00012538518348973897
-0.00012538518348973897
-0.00012538518348973897
-0.0001226294651712832
-0.0001226294651712832
-0.00013089662012665053
-0.00012814090180819475
-0.00012538518348973897
-0.0001226294651712832
-0.00012538518348973897
-0.0001336523384451063
-0.0001364080567635621
-0.0001364080567635621
-0.00013089662012665053
-0.0001336523384451063
-0.0001364080567635621
-0.00013089662012665053
-0.00013089662012665053
-0.00012538518348973897
-0.00012538518348973897
-0.0001364080567635621
-0.0001364080567635621
-0.0001391637750820179
-0.0001336523384451063
-0.00013089662012665053
-0.0001364080567635621
-0.0001391637750820179
-0.0001391637750820179
-0.0001336523384451063
-0.00012814090180819475
-0.0001336523384451063
-0.0001364080567635621
-0.0001336523384451063
-0.00012538518348973897
-0.00011436231021591582
-0.0001171180285343716
-0.00012538518348973897
-0.00013089662012665053
-0.0001336523384451063
-0.00012538518348973897
-0.0001198737468528274
-0.0001226294651712832
-0.00013089662012665053
-0.0001336523384451063
-0.0001364080567635621
-0.0001336523384451063
-0.0001364080567635621
-0.0001364080567635621
-0.00012814090180819475
-0.0001198737468528274
-0.0001171180285343716
-0.0001226294651712832
-0.00012814090180819475
-0.00013089662012665053
-0.00012814090180819475
-0.0001226294651712832
-0.00012538518348973897
-0.00013089662012665053
-0.0001336523384451063
-0.0001336523384451063
-0.00012814090180819475
-0.00012814090180819475
-0.00013089662012665053
-0.00013089662012665053
-0.0001226294651712832
-0.00011160659189746003
-0.00010885087357900426
-0.00011160659189746003
-0.0001171180285343716
-0.00011160659189746003
-0.00010333943694209268
-0.00010609515526054846
-0.00010333943694209268
-9.231656366826955e-05
-6.200366216525588e-05
-3.4446478980697995e-05
-3.720219729915378e-05
-5.6492225528344285e-05
-7.57822537575348e-05
-8.680512703135793e-05
-9.231656366826955e-05
-9.231656366826955e-05
-9.231656366826955e-05
-9.231656366826955e-05
-0.00010058371862363688
-0.00010885087357900426
-0.0001198737468528274
-0.0001226294651712832
-0.00012814090180819475
-0.00012814090180819475
-0.00012814090180819475
-0.00012814090180819475
-0.00012814090180819475
-0.0001336523384451063
-0.00013089662012665053
-0.00012814090180819475
-0.00012538518348973897
-0.00013089662012665053
-0.0001336523384451063
-0.0001336523384451063
-0.00012814090180819475
-0.00012538518348973897
-0.00012538518348973897
-0.00012814090180819475
-0.0001336523384451063
-0.0001584538033112084
-0.0002108124513618684
-0.0002190796063172357
-0.0001336523384451063
1.7912169069961946e-05
0.0002549039444571596
0.0005911015793087656
0.001007215045395589
0.0012524739757381546
0.0012276725108720525
0.0010127264820325008
0.0007509332417792012
0.0004422927901121532
0.00010885087357900291
-5.9247943846800084e-05
-7.027081712062322e-05
-5.098078889143272e-05
-4.8225070572976926e-05
-6.200366216525588e-05
-8.129369039444639e-05
-9.231656366826955e-05
-9.507228198672531e-05
-0.00010333943694209268
-0.00011160659189746003
-0.00010885087357900426
-0.00010885087357900426
-0.00010885087357900426
-0.00010333943694209268
-9.78280003051811e-05
-9.78280003051811e-05
-9.231656366826955e-05
-8.956084534981374e-05
-7.85379720759906e-05
-7.85379720759906e-05
-7.57822537575348e-05
-7.027081712062322e-05
-6.200366216525588e-05
-5.6492225528344285e-05
-5.9247943846800084e-05
-5.9247943846800084e-05
-5.098078889143272e-05
-3.995791561760957e-05
-3.720219729915378e-05
-3.720219729915378e-05
-3.4446478980697995e-05
-2.8935042343786426e-05
-2.066788738841907e-05
-1.7912169069963278e-05
-1.7912169069963278e-05
-1.5156450751507488e-05
-4.133577477684346e-06
6.8892957961388014e-06
1.5156450751506162e-05
2.066788738841773e-05
2.6179324025329308e-05
3.169076066224089e-05
4.271363393606403e-05
5.098078889143139e-05
4.546935225451981e-05
4.546935225451981e-05
5.098078889143139e-05
5.9247943846798756e-05
7.30265354390777e-05
7.578225375753347e-05
7.853797207598924e-05
8.129369039444505e-05
8.956084534981241e-05
0.00010333943694209132
0.00011160659189745871
0.00011711802853437029
0.0001253851834897376
0.00013365233844510492
0.00014191949340047234
0.00014743093003738393
0.00015018664835583973
0.0001556980849927513
0.00015845380331120705
0.00016396523994811866
0.00016396523994811866
0.00016120952162966288
0.0001556980849927513
0.0001556980849927513
0.00016120952162966288
0.00016120952162966288
0.0001556980849927513
0.00015294236667429551
0.00015018664835583973
0.00013916377508201656
0.00012262946517128183
0.00010058371862363556
7.853797207598924e-05
5.649222552834297e-05
3.444647898069667e-05
1.5156450751506162e-05
-9.64501411459592e-06
-3.169076066224221e-05
-4.8225070572976926e-05
-8.129369039444639e-05
-9.231656366826955e-05
-0.00010609515526054846
-0.0001171180285343716
-0.0001226294651712832
-0.0001171180285343716
-0.00011160659189746003
-0.0001171180285343716
-0.0001226294651712832
-0.0001171180285343716
-0.00011160659189746003
-0.00011160659189746003
-0.00011160659189746003
-0.00011160659189746003
-0.00011160659189746003
-0.00011160659189746003
-0.00010609515526054846
-0.00010609515526054846
-0.00010885087357900426
-0.00011160659189746003
-0.00010885087357900426
-0.00010609515526054846
-0.00010609515526054846
-0.00010885087357900426
-0.00010609515526054846
-0.00010609515526054846
-0.00010333943694209268
-0.00010333943694209268
-0.00010609515526054846
-0.00010885087357900426
-0.00010333943694209268
-0.00010058371862363688
-9.78280003051811e-05
-0.00010058371862363688
-0.00010333943694209268
-0.00010609515526054846
-0.00010058371862363688
-9.78280003051811e-05
-0.00010333943694209268
-0.00010885087357900426
-0.00010885087357900426
-0.00010609515526054846
-0.00010058371862363688
-0.00010058371862363688
-0.00010885087357900426
-0.00010885087357900426
-0.00010609515526054846
-0.00010058371862363688
-9.507228198672531e-05
-9.78280003051811e-05
-0.00010058371862363688
-0.00010609515526054846
-0.00010333943694209268
-0.00010058371862363688
-0.00010609515526054846
-0.00011160659189746003
-0.00011436231021591582
-0.00011160659189746003
-0.00010885087357900426
-0.00010885087357900426
-0.00010885087357900426
-0.00010609515526054846
-0.00010333943694209268
-0.00010333943694209268
-0.00011160659189746003
-0.00011436231021591582
-0.00010885087357900426
-0.00010333943694209268
-0.00010609515526054846
-0.0001171180285343716
-0.0001198737468528274
-0.00011160659189746003
-0.00010609515526054846
-0.00010885087357900426
-0.00011160659189746003
-0.00010885087357900426
-0.00010609515526054846
-0.00010609515526054846
-0.00010333943694209268
-0.00010885087357900426
-0.00010885087357900426
-0.00010609515526054846
-0.00010058371862363688
-0.00010058371862363688
-0.00010609515526054846
-0.00011160659189746003
-0.00010885087357900426
-0.00010058371862363688
-0.00010333943694209268
-0.00010885087357900426
-0.00011436231021591582
-0.00011436231021591582
-0.00010885087357900426
-0.00010609515526054846
-0.00010609515526054846
-0.00010333943694209268
-0.00010609515526054846
-0.00010609515526054846
-0.00010333943694209268
-0.00010885087357900426
-0.00011160659189746003
-0.00010885087357900426
-0.00010609515526054846
-0.00010333943694209268
-0.00010609515526054846
-0.0001171180285343716
-0.00011436231021591582
-0.00011160659189746003
-0.00010609515526054846
-0.00010333943694209268
-0.00010333943694209268
-0.00010333943694209268
-0.00010609515526054846
-0.00010333943694209268
-9.507228198672531e-05
-9.507228198672531e-05
-8.956084534981374e-05
-8.404940871290214e-05
-7.027081712062322e-05
-4.8225070572976926e-05
-2.066788738841907e-05
-1.7912169069963278e-05
-3.720219729915378e-05
-5.6492225528344285e-05
-6.475938048371164e-05
-7.302653543907902e-05
-7.85379720759906e-05
-7.027081712062322e-05
-6.751509880216745e-05
-7.85379720759906e-05
-9.507228198672531e-05
-0.00010609515526054846
-0.00010058371862363688
-9.78280003051811e-05
-0.00010885087357900426
-0.0001198737468528274
-0.0001198737468528274
-0.00011436231021591582
-0.00010885087357900426
-0.00010609515526054846
-0.00010609515526054846
-0.00010885087357900426
-0.00011160659189746003
-0.00010333943694209268
-0.00010058371862363688
-0.00010333943694209268
-0.00010333943694209268
-0.00010609515526054846
-0.00010885087357900426
-0.00012538518348973897
-0.00018049954985885472
-0.0002080567330434125
-0.0001364080567635621
1.3778591592272275e-06
0.00020805673304341124
0.0005056743114366363
0.0008997420309758136
0.0011615352712291134
0.0011477566796368347
0.0009272992141603715
0.0006627502555886161
0.00038993414206149314
0.00011160659189745871
-4.2713633936065354e-05
-6.200366216525588e-05
-3.995791561760957e-05
-3.720219729915378e-05
-4.8225070572976926e-05
-6.200366216525588e-05
-7.027081712062322e-05
-7.302653543907902e-05
-7.302653543907902e-05
-7.302653543907902e-05
-7.027081712062322e-05
-6.751509880216745e-05
-7.027081712062322e-05
-7.302653543907902e-05
-7.302653543907902e-05
-6.751509880216745e-05
-6.475938048371164e-05
-5.3736507209888505e-05
-4.8225070572976926e-05
-4.8225070572976926e-05
-4.5469352254521147e-05
-3.995791561760957e-05
-2.6179324025330647e-05
-2.066788738841907e-05
-2.6179324025330647e-05
-2.6179324025330647e-05
-2.066788738841907e-05
-9.64501411459592e-06
-6.889295796140132e-06
-4.133577477684346e-06
1.3778591592272275e-06
6.8892957961388014e-06
1.5156450751506162e-05
1.7912169069961946e-05
2.066788738841773e-05
2.066788738841773e-05
3.169076066224089e-05
4.546935225451981e-05
4.82250705729756e-05
5.098078889143139e-05
5.9247943846798756e-05
6.751509880216611e-05
7.30265354390777e-05
7.578225375753347e-05
7.30265354390777e-05
8.129369039444505e-05
8.956084534981241e-05
9.782800030517979e-05
0.00010609515526054714
0.00011160659189745871
0.00011987374685282605
0.00013089662012664922
0.00014467521171892812
0.00015294236667429551
0.00015845380331120705
0.00016396523994811866
0.0001694766765850302
0.00017774383154039756
0.0001832552681773092
0.0001832552681773092
0.00018601098649576498
0.00019152242313267648
0.00019427814145113231
0.0001970338597695881
0.00019427814145113231
0.00019152242313267648
0.00019152242313267648
0.00019427814145113231
0.00019427814145113231
0.00018876670481422076
0.00018049954985885336
0.00017498811322194178
0.000172232394903486
0.0001694766765850302
0.00015294236667429551
0.00013365233844510492
0.00011160659189745871
8.68051270313566e-05
6.200366216525454e-05
3.9957915617608246e-05
1.7912169069961946e-05
-9.64501411459592e-06
-3.4446478980697995e-05
-4.5469352254521147e-05
-5.9247943846800084e-05
-7.57822537575348e-05
-8.956084534981374e-05
-9.78280003051811e-05
-9.78280003051811e-05
-9.78280003051811e-05
-0.00010058371862363688
-0.00010609515526054846
-0.00010885087357900426
-0.00010609515526054846
-0.00010333943694209268
-0.00010333943694209268
-0.00010885087357900426
-0.00010885087357900426
-0.00010058371862363688
-9.78280003051811e-05
-9.78280003051811e-05
-9.78280003051811e-05
-9.231656366826955e-05
-8.404940871290214e-05
-8.129369039444639e-05
-8.404940871290214e-05
-8.680512703135793e-05
-8.956084534981374e-05
-8.680512703135793e-05
-8.404940871290214e-05
-8.404940871290214e-05
-8.404940871290214e-05
-7.57822537575348e-05
-6.751509880216745e-05
-6.475938048371164e-05
-7.027081712062322e-05
-7.57822537575348e-05
-8.129369039444639e-05
-7.57822537575348e-05
-7.57822537575348e-05
-8.129369039444639e-05
-8.680512703135793e-05
-8.680512703135793e-05
-7.85379720759906e-05
-7.57822537575348e-05
-7.85379720759906e-05
-8.680512703135793e-05
-8.680512703135793e-05
-8.404940871290214e-05
-8.404940871290214e-05
-8.129369039444639e-05
-8.129369039444639e-05
-8.404940871290214e-05
-8.680512703135793e-05
-8.680512703135793e-05
-8.680512703135793e-05
-8.956084534981374e-05
-8.404940871290214e-05
-8.129369039444639e-05
-8.129369039444639e-05
-8.129369039444639e-05
-8.680512703135793e-05
-9.507228198672531e-05
-9.78280003051811e-05
-9.78280003051811e-05
-9.507228198672531e-05
-9.507228198672531e-05
-9.231656366826955e-05
-9.507228198672531e-05
-9.507228198672531e-05
-8.956084534981374e-05
-9.231656366826955e-05
-9.507228198672531e-05
-9.231656366826955e-05
-9.231656366826955e-05
-8.680512703135793e-05
-8.680512703135793e-05
-9.78280003051811e-05
-0.00010333943694209268
-0.00010333943694209268
-9.78280003051811e-05
-9.231656366826955e-05
