-5.9247943846800084e-05
-6.200366216525588e-05
-6.200366216525588e-05
-6.475938048371164e-05
-6.475938048371164e-05
-6.200366216525588e-05
-6.475938048371164e-05
-7.027081712062322e-05
-7.027081712062322e-05
-6.475938048371164e-05
-6.200366216525588e-05
-5.9247943846800084e-05
-5.098078889143272e-05
-1.5156450751507488e-05
6.475938048371032e-05
0.00017774383154039756
0.0002852168459601733
0.0004340256351567857
0.0006296816357671465
0.0006710174105439835
0.0004478042267490647
8.129369039444505e-05
-0.00028797256427863044
-0.000629681635767148
-0.0008694291294728014
-0.000976902143892577
-0.0009328106507972846
-0.0007592003967345699
-0.0005470100862134743
-0.0003596212405584808
-0.0002080567330434125
-9.231656366826955e-05
-3.4446478980697995e-05
-1.7912169069963278e-05
-9.64501411459592e-06
-4.133577477684346e-06
1.3778591592272275e-06
9.64501411459459e-06
1.2400732433050376e-05
1.5156450751506162e-05
2.066788738841773e-05
2.3423605706873515e-05
3.720219729915245e-05
5.373650720988717e-05
3.720219729915245e-05
3.169076066224089e-05
3.720219729915245e-05
3.444647898069667e-05
3.444647898069667e-05
4.271363393606403e-05
4.546935225451981e-05
4.271363393606403e-05
4.546935225451981e-05
4.82250705729756e-05
5.373650720988717e-05
5.649222552834297e-05
5.9247943846798756e-05
6.475938048371032e-05
6.475938048371032e-05
6.751509880216611e-05
7.30265354390777e-05
7.853797207598924e-05
7.578225375753347e-05
7.853797207598924e-05
8.404940871290084e-05
8.956084534981241e-05
9.23165636682682e-05
9.507228198672396e-05
0.00010058371862363556
0.00010885087357900291
0.00011160659189745871
0.00011436231021591448
0.00011987374685282605
0.0001253851834897376
0.00013089662012664922
0.00013365233844510492
0.00013916377508201656
0.00014467521171892812
0.00014743093003738393
0.00015294236667429551
0.00016120952162966288
0.00016672095826657444
0.000172232394903486
0.00017498811322194178
0.00018049954985885336
0.00018601098649576498
0.00019427814145113231
0.00019978957808804387
0.00020254529640649968
0.00020254529640649968
0.00020805673304341124
0.000210812451361867
0.0002135681696803228
0.000210812451361867
0.00020530101472495543
0.00020254529640649968
0.00019978957808804387
0.00019978957808804387
0.00019427814145113231
0.00018601098649576498
0.00017498811322194178
0.00016672095826657444
0.00015845380331120705
0.00014467521171892812
0.00013089662012664922
0.00011711802853437029
0.00010333943694209132
9.23165636682682e-05
7.853797207598924e-05
5.098078889143139e-05
3.444647898069667e-05
2.3423605706873515e-05
1.2400732433050376e-05
1.3778591592272275e-06
-9.64501411459592e-06
-1.7912169069963278e-05
-1.7912169069963278e-05
-2.066788738841907e-05
-2.8935042343786426e-05
-3.169076066224221e-05
-3.169076066224221e-05
-3.4446478980697995e-05
-3.169076066224221e-05
-3.169076066224221e-05
-3.169076066224221e-05
-2.8935042343786426e-05
-3.169076066224221e-05
-3.169076066224221e-05
-2.8935042343786426e-05
-3.169076066224221e-05
-3.169076066224221e-05
-2.6179324025330647e-05
-2.342360570687485e-05
-2.6179324025330647e-05
-2.6179324025330647e-05
-2.6179324025330647e-05
-1.240073243305171e-05
1.3778591592272275e-06
-1.377859159228559e-06
-1.7912169069963278e-05
-2.8935042343786426e-05
-3.169076066224221e-05
-2.8935042343786426e-05
-2.6179324025330647e-05
-2.342360570687485e-05
-2.342360570687485e-05
-2.342360570687485e-05
-1.7912169069963278e-05
-1.5156450751507488e-05
-1.7912169069963278e-05
-2.066788738841907e-05
-2.066788738841907e-05
-1.7912169069963278e-05
-2.066788738841907e-05
-2.066788738841907e-05
-2.066788738841907e-05
-2.066788738841907e-05
-1.7912169069963278e-05
-1.7912169069963278e-05
-2.066788738841907e-05
-2.6179324025330647e-05
-3.169076066224221e-05
-3.169076066224221e-05
-2.8935042343786426e-05
-3.169076066224221e-05
-3.4446478980697995e-05
-3.720219729915378e-05
-3.720219729915378e-05
-3.720219729915378e-05
-3.720219729915378e-05
-3.720219729915378e-05
-3.4446478980697995e-05
-3.4446478980697995e-05
-3.720219729915378e-05
-3.720219729915378e-05
-4.2713633936065354e-05
-4.5469352254521147e-05
-3.995791561760957e-05
-3.995791561760957e-05
-4.2713633936065354e-05
-4.5469352254521147e-05
-4.5469352254521147e-05
-4.5469352254521147e-05
-4.8225070572976926e-05
-4.8225070572976926e-05
-4.5469352254521147e-05
-4.5469352254521147e-05
-4.5469352254521147e-05
-4.2713633936065354e-05
-4.2713633936065354e-05
-4.8225070572976926e-05
-4.5469352254521147e-05
-4.5469352254521147e-05
-4.2713633936065354e-05
-4.2713633936065354e-05
-4.2713633936065354e-05
-4.5469352254521147e-05
-4.2713633936065354e-05
-4.2713633936065354e-05
-4.2713633936065354e-05
-4.5469352254521147e-05
-4.8225070572976926e-05
-4.8225070572976926e-05
-4.8225070572976926e-05
-4.2713633936065354e-05
-4.2713633936065354e-05
-4.5469352254521147e-05
-4.2713633936065354e-05
-3.995791561760957e-05
-3.720219729915378e-05
-3.995791561760957e-05
-3.995791561760957e-05
-3.995791561760957e-05
-4.2713633936065354e-05
-3.995791561760957e-05
-3.720219729915378e-05
-3.720219729915378e-05
-3.4446478980697995e-05
-1.5156450751507488e-05
-9.64501411459592e-06
-1.5156450751507488e-05
-2.066788738841907e-05
-2.6179324025330647e-05
-3.4446478980697995e-05
-4.5469352254521147e-05
-3.995791561760957e-05
-2.8935042343786426e-05
-2.8935042343786426e-05
-2.8935042343786426e-05
-2.8935042343786426e-05
-3.720219729915378e-05
-4.5469352254521147e-05
-4.8225070572976926e-05
-4.2713633936065354e-05
-3.995791561760957e-05
-4.2713633936065354e-05
-3.995791561760957e-05
-3.995791561760957e-05
-3.995791561760957e-05
-3.720219729915378e-05
-3.995791561760957e-05
-4.2713633936065354e-05
-3.995791561760957e-05
-3.720219729915378e-05
-3.4446478980697995e-05
-3.4446478980697995e-05
-3.720219729915378e-05
-3.995791561760957e-05
-3.720219729915378e-05
-3.169076066224221e-05
-2.6179324025330647e-05
-2.342360570687485e-05
-2.342360570687485e-05
-1.7912169069963278e-05
-1.240073243305171e-05
-9.64501411459592e-06
-1.377859159228559e-06
1.2400732433050376e-05
3.444647898069667e-05
4.546935225451981e-05
3.720219729915245e-05
2.066788738841773e-05
4.133577477683014e-06
-6.889295796140132e-06
-1.240073243305171e-05
-1.5156450751507488e-05
-2.066788738841907e-05
-2.6179324025330647e-05
-2.6179324025330647e-05
-2.8935042343786426e-05
-3.720219729915378e-05
-4.5469352254521147e-05
-5.3736507209888505e-05
-6.200366216525588e-05
-6.200366216525588e-05
-5.9247943846800084e-05
-5.9247943846800084e-05
-5.9247943846800084e-05
-6.200366216525588e-05
-6.200366216525588e-05
-6.200366216525588e-05
-6.200366216525588e-05
-6.475938048371164e-05
-6.200366216525588e-05
-5.6492225528344285e-05
-5.6492225528344285e-05
-5.9247943846800084e-05
-5.9247943846800084e-05
-4.2713633936065354e-05
1.5156450751506162e-05
0.00011160659189745871
0.0002190796063172344
0.00032655262073701005
0.0005001628747997245
0.0006737731288624392
0.0006296816357671465
0.0003485983672846564
-1.240073243305171e-05
-0.0003651326771953924
-0.0006655059739070732
-0.0008611619745174342
-0.0009355663691157402
-0.0008584062561989784
-0.0006599945372701616
-0.00045882710002288904
-0.00017498811322194308
-7.57822537575348e-05
-2.8935042343786426e-05
-1.5156450751507488e-05
-4.133577477684346e-06
4.133577477683014e-06
9.64501411459459e-06
1.2400732433050376e-05
1.7912169069961946e-05
2.3423605706873515e-05
2.8935042343785094e-05
3.169076066224089e-05
3.169076066224089e-05
3.169076066224089e-05
3.720219729915245e-05
4.271363393606403e-05
4.546935225451981e-05
4.546935225451981e-05
4.546935225451981e-05
4.82250705729756e-05
5.098078889143139e-05
5.373650720988717e-05
5.9247943846798756e-05
7.30265354390777e-05
8.129369039444505e-05
7.578225375753347e-05
6.751509880216611e-05
6.200366216525454e-05
5.9247943846798756e-05
6.200366216525454e-05
7.30265354390777e-05
7.853797207598924e-05
9.23165636682682e-05
9.507228198672396e-05
8.68051270313566e-05
8.404940871290084e-05
8.68051270313566e-05
8.68051270313566e-05
9.23165636682682e-05
0.00010609515526054714
0.00012262946517128183
0.0001253851834897376
0.00011436231021591448
0.00011436231021591448
0.00011711802853437029
0.00013365233844510492
0.00014743093003738393
0.00014743093003738393
0.00014467521171892812
0.00015018664835583973
0.00015845380331120705
0.00016672095826657444
0.00016672095826657444
0.00016672095826657444
0.0001694766765850302
0.00017774383154039756
0.00019427814145113231
0.00020254529640649968
0.00019978957808804387
0.00019978957808804387
0.00019978957808804387
0.00020254529640649968
0.00019978957808804387
0.0001970338597695881
0.00019427814145113231
0.00019152242313267648
0.00018876670481422076
0.00018049954985885336
0.00017498811322194178
0.000172232394903486
0.0001694766765850302
0.00016120952162966288
0.00015018664835583973
0.00013640805676356078
0.00011711802853437029
0.00010333943694209132
8.956084534981241e-05
7.853797207598924e-05
6.751509880216611e-05
5.373650720988717e-05
3.9957915617608246e-05
2.8935042343785094e-05
2.066788738841773e-05
9.64501411459459e-06
1.3778591592272275e-06
-4.133577477684346e-06
-6.889295796140132e-06
-9.64501411459592e-06
-1.5156450751507488e-05
-2.066788738841907e-05
-2.342360570687485e-05
-2.6179324025330647e-05
-2.6179324025330647e-05
-2.342360570687485e-05
-2.342360570687485e-05
-2.6179324025330647e-05
-2.6179324025330647e-05
-2.066788738841907e-05
-1.7912169069963278e-05
-1.7912169069963278e-05
-1.7912169069963278e-05
-1.7912169069963278e-05
-1.240073243305171e-05
-9.64501411459592e-06
-9.64501411459592e-06
-9.64501411459592e-06
-1.240073243305171e-05
-9.64501411459592e-06
1.3778591592272275e-06
1.2400732433050376e-05
6.8892957961388014e-06
-4.133577477684346e-06
-9.64501411459592e-06
-9.64501411459592e-06
4.133577477683014e-06
1.2400732433050376e-05
1.3778591592272275e-06
1.3778591592272275e-06
6.8892957961388014e-06
1.3778591592272275e-06
-4.133577477684346e-06
-9.64501411459592e-06
-1.5156450751507488e-05
-1.5156450751507488e-05
-1.240073243305171e-05
-1.240073243305171e-05
-1.240073243305171e-05
-9.64501411459592e-06
-6.889295796140132e-06
-6.889295796140132e-06
-1.240073243305171e-05
-1.240073243305171e-05
-9.64501411459592e-06
-1.240073243305171e-05
-1.7912169069963278e-05
-1.7912169069963278e-05
-1.7912169069963278e-05
-2.066788738841907e-05
-1.7912169069963278e-05
-1.7912169069963278e-05
-2.342360570687485e-05
-2.342360570687485e-05
-2.066788738841907e-05
-2.066788738841907e-05
-2.066788738841907e-05
-2.066788738841907e-05
-2.066788738841907e-05
-2.066788738841907e-05
-1.7912169069963278e-05
-1.7912169069963278e-05
-2.342360570687485e-05
-2.342360570687485e-05
-2.066788738841907e-05
-1.7912169069963278e-05
-1.7912169069963278e-05
-1.7912169069963278e-05
-2.066788738841907e-05
-2.066788738841907e-05
-1.7912169069963278e-05
-6.889295796140132e-06
-1.377859159228559e-06
-4.133577477684346e-06
-9.64501411459592e-06
-1.7912169069963278e-05
-2.8935042343786426e-05
-3.4446478980697995e-05
-2.8935042343786426e-05
-2.066788738841907e-05
-2.066788738841907e-05
-2.8935042343786426e-05
-2.8935042343786426e-05
-2.8935042343786426e-05
-2.8935042343786426e-05
-2.6179324025330647e-05
-2.342360570687485e-05
-2.342360570687485e-05
-2.6179324025330647e-05
-2.6179324025330647e-05
-2.6179324025330647e-05
-2.342360570687485e-05
-2.066788738841907e-05
-2.342360570687485e-05
-2.6179324025330647e-05
-2.342360570687485e-05
-2.342360570687485e-05
-2.6179324025330647e-05
-2.6179324025330647e-05
-2.6179324025330647e-05
-2.6179324025330647e-05
-2.6179324025330647e-05
-2.6179324025330647e-05
-2.8935042343786426e-05
-2.8935042343786426e-05
-2.8935042343786426e-05
-2.6179324025330647e-05
-2.6179324025330647e-05
-2.8935042343786426e-05
-2.8935042343786426e-05
-2.8935042343786426e-05
-2.8935042343786426e-05
-2.8935042343786426e-05
-2.6179324025330647e-05
-2.342360570687485e-05
-2.6179324025330647e-05
-2.6179324025330647e-05
-2.6179324025330647e-05
-2.8935042343786426e-05
-2.8935042343786426e-05
-2.342360570687485e-05
-2.342360570687485e-05
-2.342360570687485e-05
-2.6179324025330647e-05
-2.6179324025330647e-05
-2.342360570687485e-05
-2.066788738841907e-05
-1.7912169069963278e-05
-2.066788738841907e-05
-2.066788738841907e-05
-2.066788738841907e-05
-1.240073243305171e-05
-4.133577477684346e-06
-4.133577477684346e-06
-4.133577477684346e-06
1.3778591592272275e-06
6.8892957961388014e-06
9.64501411459459e-06
1.5156450751506162e-05
3.169076066224089e-05
6.200366216525454e-05
8.404940871290084e-05
8.404940871290084e-05
6.475938048371032e-05
3.444647898069667e-05
1.5156450751506162e-05
4.133577477683014e-06
-1.377859159228559e-06
1.3778591592272275e-06
1.2400732433050376e-05
1.2400732433050376e-05
-4.133577477684346e-06
-1.5156450751507488e-05
-1.5156450751507488e-05
-2.066788738841907e-05
-2.8935042343786426e-05
-3.995791561760957e-05
-4.2713633936065354e-05
-4.2713633936065354e-05
-4.2713633936065354e-05
-4.2713633936065354e-05
-3.720219729915378e-05
-3.720219729915378e-05
-3.720219729915378e-05
-3.4446478980697995e-05
-3.4446478980697995e-05
-3.169076066224221e-05
-3.169076066224221e-05
-3.4446478980697995e-05
-3.4446478980697995e-05
-2.6179324025330647e-05
6.8892957961388014e-06
8.129369039444505e-05
0.00029623971923399637
0.0004422927901121532
0.0006434602273594254
0.0006903074387731741
0.0004670942549782553
0.00013365233844510492
-0.00020254529640650095
-0.0005332314946211955
-0.0007674675516899373
-0.000874940566109713
-0.0008556505378805224
-0.0007095974670023658
-0.0005084300297550932
-0.0003348197756923787
-0.00018601098649576628
-7.302653543907902e-05
-9.64501411459592e-06
1.2400732433050376e-05
2.066788738841773e-05
2.8935042343785094e-05
3.720219729915245e-05
3.9957915617608246e-05
4.271363393606403e-05
5.098078889143139e-05
5.373650720988717e-05
5.098078889143139e-05
5.649222552834297e-05
6.751509880216611e-05
7.02708171206219e-05
6.751509880216611e-05
6.751509880216611e-05
6.751509880216611e-05
6.200366216525454e-05
5.373650720988717e-05
5.098078889143139e-05
5.649222552834297e-05
6.751509880216611e-05
7.02708171206219e-05
7.02708171206219e-05
7.578225375753347e-05
7.853797207598924e-05
8.404940871290084e-05
8.68051270313566e-05
8.956084534981241e-05
9.507228198672396e-05
0.00010058371862363556
0.00010058371862363556
0.00010058371862363556
0.00010609515526054714
0.00011160659189745871
0.00011436231021591448
0.00011987374685282605
0.0001253851834897376
0.0001253851834897376
0.00012814090180819342
0.00013640805676356078
0.00015294236667429551
0.00016672095826657444
0.00016672095826657444
0.00016672095826657444
0.00016120952162966288
0.00015294236667429551
0.00015845380331120705
0.00016672095826657444
0.00017498811322194178
0.00019978957808804387
0.0001970338597695881
0.00019427814145113231
0.0001970338597695881
0.000210812451361867
0.00023010247959105753
0.00023285819790951333
0.0002190796063172344
0.00021632388799877858
0.0002218353246356902
0.00022459104295414594
0.00022459104295414594
0.0002190796063172344
0.0002135681696803228
0.0002135681696803228
0.0002135681696803228
0.0002135681696803228
0.00021632388799877858
0.00020530101472495543
0.00018876670481422076
0.00017498811322194178
0.00016672095826657444
0.00015294236667429551
0.00015018664835583973
0.00014467521171892812
0.00013089662012664922
0.00010885087357900291
9.23165636682682e-05
8.129369039444505e-05
7.578225375753347e-05
7.30265354390777e-05
5.373650720988717e-05
3.720219729915245e-05
2.6179324025329308e-05
2.3423605706873515e-05
1.7912169069961946e-05
1.2400732433050376e-05
6.8892957961388014e-06
4.133577477683014e-06
4.133577477683014e-06
6.8892957961388014e-06
9.64501411459459e-06
4.133577477683014e-06
4.133577477683014e-06
1.3778591592272275e-06
4.133577477683014e-06
6.8892957961388014e-06
6.8892957961388014e-06
9.64501411459459e-06
6.8892957961388014e-06
6.8892957961388014e-06
9.64501411459459e-06
1.2400732433050376e-05
1.5156450751506162e-05
1.5156450751506162e-05
1.5156450751506162e-05
1.7912169069961946e-05
1.7912169069961946e-05
1.7912169069961946e-05
1.7912169069961946e-05
1.7912169069961946e-05
2.066788738841773e-05
2.3423605706873515e-05
2.066788738841773e-05
2.066788738841773e-05
2.066788738841773e-05
2.6179324025329308e-05
2.3423605706873515e-05
2.3423605706873515e-05
2.066788738841773e-05
2.3423605706873515e-05
2.6179324025329308e-05
2.6179324025329308e-05
2.3423605706873515e-05
1.7912169069961946e-05
1.7912169069961946e-05
2.066788738841773e-05
1.7912169069961946e-05
2.8935042343785094e-05
3.444647898069667e-05
2.8935042343785094e-05
1.5156450751506162e-05
6.8892957961388014e-06
1.3778591592272275e-06
-1.377859159228559e-06
9.64501411459459e-06
2.066788738841773e-05
1.7912169069961946e-05
9.64501411459459e-06
4.133577477683014e-06
-6.889295796140132e-06
-9.64501411459592e-06
-6.889295796140132e-06
-6.889295796140132e-06
-9.64501411459592e-06
-9.64501411459592e-06
-6.889295796140132e-06
4.133577477683014e-06
1.5156450751506162e-05
9.64501411459459e-06
-4.133577477684346e-06
-9.64501411459592e-06
-1.240073243305171e-05
-9.64501411459592e-06
-6.889295796140132e-06
-9.64501411459592e-06
-9.64501411459592e-06
-6.889295796140132e-06
-6.889295796140132e-06
-6.889295796140132e-06
-9.64501411459592e-06
-6.889295796140132e-06
-9.64501411459592e-06
-9.64501411459592e-06
-9.64501411459592e-06
-1.5156450751507488e-05
-1.7912169069963278e-05
-1.7912169069963278e-05
-1.7912169069963278e-05
-1.5156450751507488e-05
-1.7912169069963278e-05
-2.066788738841907e-05
-1.5156450751507488e-05
-1.240073243305171e-05
-1.5156450751507488e-05
-1.7912169069963278e-05
-2.066788738841907e-05
-1.5156450751507488e-05
-1.5156450751507488e-05
-1.7912169069963278e-05
-1.7912169069963278e-05
-2.066788738841907e-05
-2.066788738841907e-05
-1.7912169069963278e-05
-1.7912169069963278e-05
-1.7912169069963278e-05
-2.066788738841907e-05
-2.066788738841907e-05
-1.5156450751507488e-05
-4.133577477684346e-06
-1.377859159228559e-06
-9.64501411459592e-06
-2.066788738841907e-05
-1.5156450751507488e-05
-1.7912169069963278e-05
-3.169076066224221e-05
-3.4446478980697995e-05
-2.342360570687485e-05
-1.5156450751507488e-05
-2.342360570687485e-05
-3.4446478980697995e-05
-3.720219729915378e-05
-3.4446478980697995e-05
-3.169076066224221e-05
-3.169076066224221e-05
-2.8935042343786426e-05
-1.7912169069963278e-05
-1.5156450751507488e-05
-2.6179324025330647e-05
-3.169076066224221e-05
-3.4446478980697995e-05
-3.169076066224221e-05
-1.240073243305171e-05
4.133577477683014e-06
4.133577477683014e-06
-4.133577477684346e-06
1.3778591592272275e-06
1.2400732433050376e-05
1.5156450751506162e-05
1.7912169069961946e-05
3.169076066224089e-05
5.649222552834297e-05
7.578225375753347e-05
6.475938048371032e-05
3.444647898069667e-05
1.5156450751506162e-05
9.64501411459459e-06
9.64501411459459e-06
9.64501411459459e-06
1.3778591592272275e-06
-4.133577477684346e-06
-9.64501411459592e-06
-1.7912169069963278e-05
-2.8935042343786426e-05
-3.720219729915378e-05
-4.8225070572976926e-05
-5.3736507209888505e-05
-5.3736507209888505e-05
-5.098078889143272e-05
-5.098078889143272e-05
-5.098078889143272e-05
-5.098078889143272e-05
-5.3736507209888505e-05
-5.3736507209888505e-05
-5.098078889143272e-05
-5.098078889143272e-05
-5.6492225528344285e-05
-5.6492225528344285e-05
-5.6492225528344285e-05
-5.3736507209888505e-05
-3.4446478980697995e-05
1.2400732433050376e-05
0.00010609515526054714
0.0002218353246356902
0.000340331212329289
0.0005222086213473709
0.0006847960021362622
0.000599368734264133
0.0002934840009155406
-7.027081712062322e-05
-0.0004312699168383313
-0.000745421805142291
-0.0009355663691157402
-0.000976902143892577
-0.000874940566109713
-0.0006710174105439848
-0.00046433853665980087
-0.00028797256427863044
-0.00014191949340047367
-4.8225070572976926e-05
-9.64501411459592e-06
1.3778591592272275e-06
6.8892957961388014e-06
2.066788738841773e-05
4.271363393606403e-05
5.373650720988717e-05
5.373650720988717e-05
3.9957915617608246e-05
3.169076066224089e-05
2.8935042343785094e-05
3.169076066224089e-05
3.444647898069667e-05
3.444647898069667e-05
3.9957915617608246e-05
5.373650720988717e-05
6.475938048371032e-05
5.9247943846798756e-05
5.373650720988717e-05
4.82250705729756e-05
5.098078889143139e-05
5.649222552834297e-05
5.9247943846798756e-05
6.200366216525454e-05
6.475938048371032e-05
7.30265354390777e-05
7.578225375753347e-05
7.853797207598924e-05
8.129369039444505e-05
8.404940871290084e-05
8.404940871290084e-05
8.68051270313566e-05
9.23165636682682e-05
9.782800030517979e-05
0.00010058371862363556
0.00010609515526054714
0.00011160659189745871
0.00011711802853437029
0.00011987374685282605
0.0001253851834897376
0.00012814090180819342
0.00013365233844510492
0.00014191949340047234
0.00015294236667429551
0.00016120952162966288
0.00018049954985885336
0.00018601098649576498
0.00018049954985885336
0.00017498811322194178
0.0001832552681773092
0.00019152242313267648
0.00019978957808804387
0.00020805673304341124
0.00021632388799877858
0.00023285819790951333
0.00024388107118333642
0.00024112535286488067
0.00023285819790951333
0.00023010247959105753
0.00023561391622796914
0.00024388107118333642
0.00025214822613870384
0.00024388107118333642
0.00023010247959105753
0.0002190796063172344
0.0002135681696803228
0.000210812451361867
0.00020805673304341124
0.00019978957808804387
0.00019152242313267648
0.00019152242313267648
0.00019152242313267648
0.00017498811322194178
0.00015018664835583973
0.00013089662012664922
0.00011436231021591448
0.00010058371862363556
8.956084534981241e-05
8.404940871290084e-05
6.751509880216611e-05
4.271363393606403e-05
2.6179324025329308e-05
1.5156450751506162e-05
6.8892957961388014e-06
1.3778591592272275e-06
4.133577477683014e-06
6.8892957961388014e-06
-1.377859159228559e-06
-1.5156450751507488e-05
-1.7912169069963278e-05
-1.7912169069963278e-05
-2.066788738841907e-05
-2.066788738841907e-05
-2.066788738841907e-05
-2.066788738841907e-05
-1.7912169069963278e-05
-1.7912169069963278e-05
-1.5156450751507488e-05
-1.5156450751507488e-05
-1.7912169069963278e-05
-1.7912169069963278e-05
-1.240073243305171e-05
-6.889295796140132e-06
-6.889295796140132e-06
-4.133577477684346e-06
-4.133577477684346e-06
-1.377859159228559e-06
1.3778591592272275e-06
1.3778591592272275e-06
-1.377859159228559e-06
1.3778591592272275e-06
1.3778591592272275e-06
4.133577477683014e-06
4.133577477683014e-06
1.3778591592272275e-06
-1.377859159228559e-06
-4.133577477684346e-06
-4.133577477684346e-06
-1.377859159228559e-06
-4.133577477684346e-06
-4.133577477684346e-06
-4.133577477684346e-06
1.3778591592272275e-06
1.3778591592272275e-06
-1.377859159228559e-06
-4.133577477684346e-06
-4.133577477684346e-06
-1.377859159228559e-06
-1.377859159228559e-06
-6.889295796140132e-06
-1.240073243305171e-05
-1.5156450751507488e-05
-1.240073243305171e-05
-1.5156450751507488e-05
-1.5156450751507488e-05
-1.7912169069963278e-05
-1.7912169069963278e-05
-1.7912169069963278e-05
-1.7912169069963278e-05
-1.7912169069963278e-05
-1.7912169069963278e-05
-2.342360570687485e-05
-2.342360570687485e-05
-2.342360570687485e-05
-2.342360570687485e-05
-2.342360570687485e-05
-2.342360570687485e-05
-2.342360570687485e-05
-2.6179324025330647e-05
-2.6179324025330647e-05
-2.6179324025330647e-05
-2.6179324025330647e-05
-2.6179324025330647e-05
-2.342360570687485e-05
-2.342360570687485e-05
-2.6179324025330647e-05
-2.8935042343786426e-05
-2.8935042343786426e-05
-2.8935042343786426e-05
-2.8935042343786426e-05
-2.8935042343786426e-05
-3.169076066224221e-05
-2.066788738841907e-05
-6.889295796140132e-06
-1.240073243305171e-05
-2.342360570687485e-05
-3.4446478980697995e-05
-3.720219729915378e-05
-3.720219729915378e-05
-3.720219729915378e-05
-3.720219729915378e-05
-3.995791561760957e-05
-3.720219729915378e-05
-3.4446478980697995e-05
-3.720219729915378e-05
-3.169076066224221e-05
-1.5156450751507488e-05
-1.240073243305171e-05
-2.066788738841907e-05
-2.6179324025330647e-05
-3.4446478980697995e-05
-4.5469352254521147e-05
-5.098078889143272e-05
-4.8225070572976926e-05
-4.2713633936065354e-05
-4.2713633936065354e-05
-4.2713633936065354e-05
-3.720219729915378e-05
-3.4446478980697995e-05
-3.169076066224221e-05
-3.4446478980697995e-05
-3.4446478980697995e-05
-3.169076066224221e-05
-3.169076066224221e-05
-3.4446478980697995e-05
-3.169076066224221e-05
-3.169076066224221e-05
-3.169076066224221e-05
-3.169076066224221e-05
-2.8935042343786426e-05
-2.8935042343786426e-05
-3.4446478980697995e-05
-3.4446478980697995e-05
-3.169076066224221e-05
-2.8935042343786426e-05
-2.342360570687485e-05
-2.6179324025330647e-05
-2.8935042343786426e-05
-2.8935042343786426e-05
-2.6179324025330647e-05
-2.6179324025330647e-05
-2.6179324025330647e-05
-2.6179324025330647e-05
-2.342360570687485e-05
-2.066788738841907e-05
-2.066788738841907e-05
-2.342360570687485e-05
-2.6179324025330647e-05
-2.066788738841907e-05
-9.64501411459592e-06
-9.64501411459592e-06
-1.240073243305171e-05
-6.889295796140132e-06
1.3778591592272275e-06
9.64501411459459e-06
1.7912169069961946e-05
3.169076066224089e-05
4.271363393606403e-05
5.649222552834297e-05
5.9247943846798756e-05
4.546935225451981e-05
2.6179324025329308e-05
1.7912169069961946e-05
9.64501411459459e-06
1.3778591592272275e-06
-1.377859159228559e-06
-1.377859159228559e-06
-1.377859159228559e-06
-1.240073243305171e-05
-2.066788738841907e-05
-3.4446478980697995e-05
-3.720219729915378e-05
-3.995791561760957e-05
-3.995791561760957e-05
-3.995791561760957e-05
-3.995791561760957e-05
-4.2713633936065354e-05
-4.5469352254521147e-05
-4.5469352254521147e-05
-4.5469352254521147e-05
-4.2713633936065354e-05
-3.995791561760957e-05
-2.8935042343786426e-05
-2.066788738841907e-05
-2.342360570687485e-05
-3.169076066224221e-05
-1.7912169069963278e-05
2.6179324025329308e-05
0.00010333943694209132
0.00020254529640649968
0.00031001831082627527
0.00047536140993362247
0.0006710174105439835
0.000679284565499351
0.0004340256351567857
6.475938048371032e-05
-0.0003127740291447324
-0.0006462159456778825
-0.0008639176928358897
-0.0009438335240711076
-0.0008832077210650803
-0.0007068417486839102
-0.0004946514381628143
-0.0003155297474631883
-0.00016672095826657574
-5.9247943846800084e-05
-4.133577477684346e-06
1.5156450751506162e-05
1.7912169069961946e-05
2.066788738841773e-05
2.8935042343785094e-05
3.720219729915245e-05
3.720219729915245e-05
3.720219729915245e-05
4.271363393606403e-05
4.82250705729756e-05
5.098078889143139e-05
5.373650720988717e-05
5.373650720988717e-05
5.649222552834297e-05
5.9247943846798756e-05
6.475938048371032e-05
7.02708171206219e-05
7.02708171206219e-05
7.02708171206219e-05
7.30265354390777e-05
7.578225375753347e-05
7.853797207598924e-05
8.129369039444505e-05
8.129369039444505e-05
8.68051270313566e-05
8.956084534981241e-05
9.507228198672396e-05
0.00010058371862363556
0.00010333943694209132
0.00010885087357900291
0.00011160659189745871
0.00011711802853437029
0.00011987374685282605
0.00012262946517128183
0.00013089662012664922
0.00013640805676356078
0.00014191949340047234
0.00014467521171892812
0.00015018664835583973
0.00015845380331120705
0.00015845380331120705
0.00016396523994811866
0.00016672095826657444
0.0001694766765850302
0.00017774383154039756
0.00018601098649576498
0.00019152242313267648
0.00019427814145113231
0.00019978957808804387
0.00020805673304341124
0.00021632388799877858
0.00022459104295414594
0.00023285819790951333
0.00023561391622796914
0.00024112535286488067
0.00025214822613870384
0.0002549039444571596
0.0002549039444571596
0.0002549039444571596
0.00026041538109407124
0.0002576596627756154
0.00025214822613870384
0.0002493925078202481
0.00024388107118333642
0.00024112535286488067
0.0002383696345464249
0.00023010247959105753
0.00022459104295414594
0.00021632388799877858
0.00020254529640649968
0.00019427814145113231
0.00018601098649576498
0.000172232394903486
0.00015845380331120705
0.00014467521171892812
0.00013365233844510492
0.00012262946517128183
0.00010885087357900291
9.23165636682682e-05
7.578225375753347e-05
6.475938048371032e-05
5.649222552834297e-05
4.546935225451981e-05
3.444647898069667e-05
2.6179324025329308e-05
3.169076066224089e-05
3.9957915617608246e-05
3.720219729915245e-05
2.066788738841773e-05
9.64501411459459e-06
4.133577477683014e-06
4.133577477683014e-06
4.133577477683014e-06
6.8892957961388014e-06
9.64501411459459e-06
1.2400732433050376e-05
1.2400732433050376e-05
9.64501411459459e-06
1.2400732433050376e-05
1.7912169069961946e-05
2.066788738841773e-05
2.066788738841773e-05
2.3423605706873515e-05
2.3423605706873515e-05
2.3423605706873515e-05
2.6179324025329308e-05
2.6179324025329308e-05
2.3423605706873515e-05
2.3423605706873515e-05
2.3423605706873515e-05
2.6179324025329308e-05
2.6179324025329308e-05
2.3423605706873515e-05
2.8935042343785094e-05
2.6179324025329308e-05
2.6179324025329308e-05
2.8935042343785094e-05
3.9957915617608246e-05
4.82250705729756e-05
3.720219729915245e-05
2.066788738841773e-05
1.2400732433050376e-05
1.5156450751506162e-05
2.066788738841773e-05
2.8935042343785094e-05
2.3423605706873515e-05
1.2400732433050376e-05
4.133577477683014e-06
4.133577477683014e-06
4.133577477683014e-06
1.5156450751506162e-05
1.5156450751506162e-05
4.133577477683014e-06
-6.889295796140132e-06
-1.240073243305171e-05
-1.240073243305171e-05
-9.64501411459592e-06
-9.64501411459592e-06
-6.889295796140132e-06
-9.64501411459592e-06
-9.64501411459592e-06
-6.889295796140132e-06
-6.889295796140132e-06
-9.64501411459592e-06
-1.240073243305171e-05
-1.5156450751507488e-05
-1.240073243305171e-05
-1.240073243305171e-05
-1.240073243305171e-05
-1.5156450751507488e-05
-1.5156450751507488e-05
-1.7912169069963278e-05
-1.7912169069963278e-05
-1.5156450751507488e-05
-1.5156450751507488e-05
-1.5156450751507488e-05
-1.7912169069963278e-05
-1.240073243305171e-05
-1.240073243305171e-05
-1.7912169069963278e-05
-2.066788738841907e-05
-2.066788738841907e-05
-1.7912169069963278e-05
-2.066788738841907e-05
-2.066788738841907e-05
-1.7912169069963278e-05
-1.7912169069963278e-05
-1.5156450751507488e-05
-1.5156450751507488e-05
-9.64501411459592e-06
1.3778591592272275e-06
1.3778591592272275e-06
-9.64501411459592e-06
-1.7912169069963278e-05
-1.7912169069963278e-05
-1.7912169069963278e-05
-1.7912169069963278e-05
-1.7912169069963278e-05
-1.5156450751507488e-05
-1.240073243305171e-05
-1.5156450751507488e-05
-1.5156450751507488e-05
-1.5156450751507488e-05
-1.240073243305171e-05
-9.64501411459592e-06
-1.240073243305171e-05
-9.64501411459592e-06
-6.889295796140132e-06
-4.133577477684346e-06
-6.889295796140132e-06
-9.64501411459592e-06
-1.240073243305171e-05
-9.64501411459592e-06
-6.889295796140132e-06
-6.889295796140132e-06
-9.64501411459592e-06
-1.240073243305171e-05
-9.64501411459592e-06
-6.889295796140132e-06
-4.133577477684346e-06
-6.889295796140132e-06
-9.64501411459592e-06
-9.64501411459592e-06
-6.889295796140132e-06
-4.133577477684346e-06
-6.889295796140132e-06
-9.64501411459592e-06
-9.64501411459592e-06
-4.133577477684346e-06
-1.377859159228559e-06
-1.377859159228559e-06
-4.133577477684346e-06
-4.133577477684346e-06
-1.377859159228559e-06
1.3778591592272275e-06
6.8892957961388014e-06
9.64501411459459e-06
1.2400732433050376e-05
1.7912169069961946e-05
2.3423605706873515e-05
3.169076066224089e-05
3.444647898069667e-05
3.9957915617608246e-05
5.649222552834297e-05
8.956084534981241e-05
7.853797207598924e-05
6.200366216525454e-05
4.82250705729756e-05
3.444647898069667e-05
2.3423605706873515e-05
2.066788738841773e-05
1.5156450751506162e-05
1.5156450751506162e-05
1.2400732433050376e-05
6.8892957961388014e-06
-1.377859159228559e-06
-9.64501411459592e-06
-2.066788738841907e-05
-2.066788738841907e-05
-2.6179324025330647e-05
-2.6179324025330647e-05
-2.8935042343786426e-05
-2.8935042343786426e-05
-2.8935042343786426e-05
-2.342360570687485e-05
-2.342360570687485e-05
-2.342360570687485e-05
-2.6179324025330647e-05
-2.6179324025330647e-05
-2.6179324025330647e-05
-2.342360570687485e-05
-2.342360570687485e-05
-2.342360570687485e-05
-4.133577477684346e-06
5.098078889143139e-05
0.00014467521171892812
0.00025214822613870384
0.00035410980392156795
0.0005304757763027383
0.0007123531853208202
0.0006710174105439835
0.00038717842374303736
2.6179324025329308e-05
-0.00032655262073701135
-0.0006407045090409712
-0.0008446276646066993
-0.0009080091859311822
-0.0008198261997405972
-0.000615903044174869
-0.00040922417029068495
-0.0002604153810940725
-0.0001336523384451063
-3.995791561760957e-05
9.64501411459459e-06
2.3423605706873515e-05
2.6179324025329308e-05
2.6179324025329308e-05
2.8935042343785094e-05
3.444647898069667e-05
4.546935225451981e-05
6.200366216525454e-05
7.578225375753347e-05
7.02708171206219e-05
5.649222552834297e-05
5.373650720988717e-05
5.9247943846798756e-05
6.200366216525454e-05
6.200366216525454e-05
6.475938048371032e-05
7.578225375753347e-05
8.129369039444505e-05
8.129369039444505e-05
8.129369039444505e-05
8.129369039444505e-05
8.68051270313566e-05
8.956084534981241e-05
8.956084534981241e-05
9.23165636682682e-05
9.507228198672396e-05
9.782800030517979e-05
0.00010058371862363556
0.00010058371862363556
0.00010333943694209132
0.00011160659189745871
0.00011987374685282605
0.00011987374685282605
0.00011987374685282605
0.00011987374685282605
0.00012262946517128183
0.0001253851834897376
0.00013640805676356078
0.00013916377508201656
0.00014191949340047234
0.00014467521171892812
0.00014743093003738393
0.00015294236667429551
0.00015845380331120705
0.00016120952162966288
0.00016396523994811866
0.000172232394903486
0.00018049954985885336
0.00018601098649576498
0.00019152242313267648
0.0001970338597695881
0.00020805673304341124
0.00022459104295414594
0.00023561391622796914
0.00023285819790951333
0.0002218353246356902
0.0002218353246356902
0.0002190796063172344
0.00022459104295414594
0.00022734676127260172
0.00022459104295414594
0.0002190796063172344
0.0002218353246356902
0.00023010247959105753
0.00023010247959105753
0.000210812451361867
0.00019427814145113231
0.00017774383154039756
0.0001694766765850302
0.00016396523994811866
0.00015845380331120705
0.00015845380331120705
0.00015294236667429551
0.00013640805676356078
0.00011160659189745871
9.507228198672396e-05
8.404940871290084e-05
7.02708171206219e-05
5.649222552834297e-05
4.546935225451981e-05
3.444647898069667e-05
2.066788738841773e-05
1.7912169069961946e-05
1.5156450751506162e-05
6.8892957961388014e-06
1.3778591592272275e-06
1.3778591592272275e-06
4.133577477683014e-06
1.3778591592272275e-06
-1.377859159228559e-06
-1.377859159228559e-06
1.3778591592272275e-06
4.133577477683014e-06
4.133577477683014e-06
4.133577477683014e-06
4.133577477683014e-06
6.8892957961388014e-06
9.64501411459459e-06
6.8892957961388014e-06
6.8892957961388014e-06
1.2400732433050376e-05
1.5156450751506162e-05
1.7912169069961946e-05
2.066788738841773e-05
2.3423605706873515e-05
2.3423605706873515e-05
2.6179324025329308e-05
2.8935042343785094e-05
3.169076066224089e-05
3.444647898069667e-05
3.169076066224089e-05
3.169076066224089e-05
3.169076066224089e-05
3.169076066224089e-05
3.169076066224089e-05
3.444647898069667e-05
3.169076066224089e-05
3.169076066224089e-05
3.444647898069667e-05
3.169076066224089e-05
2.8935042343785094e-05
2.6179324025329308e-05
2.6179324025329308e-05
2.6179324025329308e-05
2.6179324025329308e-05
2.3423605706873515e-05
2.3423605706873515e-05
2.3423605706873515e-05
2.3423605706873515e-05
2.3423605706873515e-05
2.3423605706873515e-05
2.8935042343785094e-05
3.720219729915245e-05
3.444647898069667e-05
2.3423605706873515e-05
2.066788738841773e-05
2.6179324025329308e-05
1.5156450751506162e-05
1.3778591592272275e-06
1.3778591592272275e-06
-1.377859159228559e-06
-4.133577477684346e-06
-4.133577477684346e-06
1.3778591592272275e-06
4.133577477683014e-06
1.3778591592272275e-06
4.133577477683014e-06
1.3778591592272275e-06
1.3778591592272275e-06
1.3778591592272275e-06
-1.377859159228559e-06
-4.133577477684346e-06
-4.133577477684346e-06
-1.377859159228559e-06
-1.377859159228559e-06
-1.377859159228559e-06
-1.377859159228559e-06
-1.377859159228559e-06
1.3778591592272275e-06
1.3778591592272275e-06
-1.377859159228559e-06
-4.133577477684346e-06
-4.133577477684346e-06
1.3778591592272275e-06
4.133577477683014e-06
4.133577477683014e-06
6.8892957961388014e-06
1.3778591592272275e-06
-1.377859159228559e-06
-1.377859159228559e-06
4.133577477683014e-06
6.8892957961388014e-06
1.3778591592272275e-06
-1.377859159228559e-06
-1.377859159228559e-06
-4.133577477684346e-06
-1.377859159228559e-06
-1.377859159228559e-06
1.3778591592272275e-06
4.133577477683014e-06
1.3778591592272275e-06
1.3778591592272275e-06
1.3778591592272275e-06
1.3778591592272275e-06
4.133577477683014e-06
9.64501411459459e-06
6.8892957961388014e-06
1.5156450751506162e-05
2.6179324025329308e-05
2.3423605706873515e-05
1.2400732433050376e-05
4.133577477683014e-06
6.8892957961388014e-06
1.5156450751506162e-05
1.7912169069961946e-05
9.64501411459459e-06
-1.377859159228559e-06
1.3778591592272275e-06
1.3778591592272275e-06
1.2400732433050376e-05
2.3423605706873515e-05
2.3423605706873515e-05
9.64501411459459e-06
4.133577477683014e-06
1.3778591592272275e-06
1.3778591592272275e-06
1.3778591592272275e-06
6.8892957961388014e-06
6.8892957961388014e-06
6.8892957961388014e-06
4.133577477683014e-06
4.133577477683014e-06
1.3778591592272275e-06
4.133577477683014e-06
1.5156450751506162e-05
2.8935042343785094e-05
3.169076066224089e-05
2.8935042343785094e-05
3.169076066224089e-05
3.720219729915245e-05
4.271363393606403e-05
4.82250705729756e-05
5.649222552834297e-05
7.578225375753347e-05
8.956084534981241e-05
8.404940871290084e-05
7.30265354390777e-05
6.200366216525454e-05
5.098078889143139e-05
4.271363393606403e-05
3.9957915617608246e-05
3.444647898069667e-05
2.8935042343785094e-05
2.6179324025329308e-05
1.7912169069961946e-05
1.2400732433050376e-05
4.133577477683014e-06
-4.133577477684346e-06
-6.889295796140132e-06
-9.64501411459592e-06
-1.240073243305171e-05
-1.240073243305171e-05
-9.64501411459592e-06
-9.64501411459592e-06
-9.64501411459592e-06
-9.64501411459592e-06
-1.377859159228559e-06
1.2400732433050376e-05
1.2400732433050376e-05
1.3778591592272275e-06
-6.889295796140132e-06
-6.889295796140132e-06
-4.133577477684346e-06
1.7912169069961946e-05
7.578225375753347e-05
0.00018049954985885336
0.00029623971923399637
0.00042575848020141833
0.0006131473258564118
0.0007343989318684667
0.0005966130159456772
0.00027970540932326175
-6.475938048371164e-05
-0.00040371273365377345
-0.0006792845654993521
-0.0008253376363775088
-0.0008391162279697878
-0.0007178646219577333
-0.0005277200579842838
-0.0003513540856031135
-0.00020530101472495681
-7.57822537575348e-05
9.64501411459459e-06
5.098078889143139e-05
5.649222552834297e-05
5.098078889143139e-05
5.9247943846798756e-05
6.751509880216611e-05
6.475938048371032e-05
7.02708171206219e-05
7.30265354390777e-05
7.578225375753347e-05
8.129369039444505e-05
8.404940871290084e-05
8.404940871290084e-05
8.68051270313566e-05
9.23165636682682e-05
9.23165636682682e-05
9.507228198672396e-05
9.507228198672396e-05
0.00010058371862363556
0.00010333943694209132
0.00010333943694209132
0.00010885087357900291
0.00010885087357900291
0.00011436231021591448
0.00011436231021591448
0.00011160659189745871
0.00011436231021591448
0.00011987374685282605
0.00012262946517128183
0.00012814090180819342
0.00012814090180819342
0.00012814090180819342
0.00012814090180819342
0.00013365233844510492
0.00013640805676356078
0.00013916377508201656
0.00014191949340047234
0.00014467521171892812
0.00015018664835583973
0.00015845380331120705
0.00016120952162966288
0.00016120952162966288
0.00016672095826657444
0.0001694766765850302
0.00017774383154039756
0.00018601098649576498
0.00018876670481422076
0.00019427814145113231
0.00019978957808804387
0.00020530101472495543
0.00021632388799877858
0.0002218353246356902
0.00022459104295414594
0.00022459104295414594
0.00023285819790951333
0.00024112535286488067
0.00024663678950179223
0.00024663678950179223
0.0002493925078202481
0.0002493925078202481
0.00025214822613870384
0.0002493925078202481
0.0002493925078202481
0.00024112535286488067
0.00023561391622796914
0.0002383696345464249
0.00024663678950179223
0.00024388107118333642
0.00022459104295414594
0.00020254529640649968
0.00018049954985885336
0.00016672095826657444
0.00015018664835583973
0.00013916377508201656
0.00013089662012664922
0.00011711802853437029
0.00010333943694209132
9.507228198672396e-05
8.404940871290084e-05
7.578225375753347e-05
6.751509880216611e-05
5.9247943846798756e-05
5.373650720988717e-05
4.82250705729756e-05
4.271363393606403e-05
3.9957915617608246e-05
3.720219729915245e-05
3.444647898069667e-05
3.444647898069667e-05
2.8935042343785094e-05
3.169076066224089e-05
3.444647898069667e-05
3.444647898069667e-05
3.444647898069667e-05
3.444647898069667e-05
3.444647898069667e-05
3.444647898069667e-05
3.720219729915245e-05
3.9957915617608246e-05
3.9957915617608246e-05
4.271363393606403e-05
4.546935225451981e-05
4.271363393606403e-05
3.9957915617608246e-05
4.271363393606403e-05
4.271363393606403e-05
4.546935225451981e-05
4.546935225451981e-05
4.546935225451981e-05
4.546935225451981e-05
4.82250705729756e-05
5.373650720988717e-05
5.373650720988717e-05
5.373650720988717e-05
5.373650720988717e-05
5.373650720988717e-05
5.373650720988717e-05
5.098078889143139e-05
4.82250705729756e-05
4.82250705729756e-05
4.82250705729756e-05
4.82250705729756e-05
4.82250705729756e-05
4.546935225451981e-05
4.546935225451981e-05
4.546935225451981e-05
4.546935225451981e-05
4.546935225451981e-05
4.546935225451981e-05
4.271363393606403e-05
3.9957915617608246e-05
3.9957915617608246e-05
3.9957915617608246e-05
3.9957915617608246e-05
3.720219729915245e-05
3.169076066224089e-05
3.169076066224089e-05
3.169076066224089e-05
2.8935042343785094e-05
2.6179324025329308e-05
2.3423605706873515e-05
2.8935042343785094e-05
2.6179324025329308e-05
2.066788738841773e-05
2.066788738841773e-05
2.066788738841773e-05
2.3423605706873515e-05
2.3423605706873515e-05
2.3423605706873515e-05
2.3423605706873515e-05
2.066788738841773e-05
1.7912169069961946e-05
1.7912169069961946e-05
2.066788738841773e-05
1.7912169069961946e-05
2.066788738841773e-05
2.066788738841773e-05
2.3423605706873515e-05
2.066788738841773e-05
2.066788738841773e-05
2.066788738841773e-05
2.066788738841773e-05
2.066788738841773e-05
2.066788738841773e-05
2.066788738841773e-05
1.5156450751506162e-05
1.7912169069961946e-05
1.7912169069961946e-05
2.3423605706873515e-05
3.720219729915245e-05
3.720219729915245e-05
2.3423605706873515e-05
1.5156450751506162e-05
1.5156450751506162e-05
1.5156450751506162e-05
1.5156450751506162e-05
1.7912169069961946e-05
2.6179324025329308e-05
2.6179324025329308e-05
1.5156450751506162e-05
4.133577477683014e-06
1.3778591592272275e-06
1.3778591592272275e-06
6.8892957961388014e-06
1.2400732433050376e-05
1.7912169069961946e-05
1.7912169069961946e-05
6.8892957961388014e-06
1.3778591592272275e-06
1.3778591592272275e-06
1.3778591592272275e-06
1.3778591592272275e-06
6.8892957961388014e-06
1.5156450751506162e-05
2.6179324025329308e-05
2.3423605706873515e-05
9.64501411459459e-06
4.133577477683014e-06
6.8892957961388014e-06
6.8892957961388014e-06
6.8892957961388014e-06
6.8892957961388014e-06
9.64501411459459e-06
1.2400732433050376e-05
1.2400732433050376e-05
9.64501411459459e-06
9.64501411459459e-06
1.2400732433050376e-05
1.2400732433050376e-05
1.5156450751506162e-05
2.066788738841773e-05
2.6179324025329308e-05
3.169076066224089e-05
3.720219729915245e-05
3.9957915617608246e-05
3.9957915617608246e-05
4.271363393606403e-05
5.9247943846798756e-05
8.129369039444505e-05
9.782800030517979e-05
0.00010058371862363556
8.956084534981241e-05
7.578225375753347e-05
6.475938048371032e-05
5.373650720988717e-05
4.546935225451981e-05
3.9957915617608246e-05
3.9957915617608246e-05
4.271363393606403e-05
3.720219729915245e-05
2.8935042343785094e-05
1.7912169069961946e-05
4.133577477683014e-06
-1.377859159228559e-06
-1.377859159228559e-06
-1.377859159228559e-06
-4.133577477684346e-06
-4.133577477684346e-06
-4.133577477684346e-06
-4.133577477684346e-06
-4.133577477684346e-06
-9.64501411459592e-06
-9.64501411459592e-06
-6.889295796140132e-06
-6.889295796140132e-06
-6.889295796140132e-06
-9.64501411459592e-06
-1.240073243305171e-05
-6.889295796140132e-06
2.8935042343785094e-05
0.00010058371862363556
0.00019152242313267648
0.0002852168459601733
0.00040371273365377215
0.000599368734264133
0.0007371546501869223
0.0006021244525825888
0.0002741939726863501
-9.231656366826955e-05
-0.000447804226749066
-0.0007399103685053794
-0.0009107649042496381
-0.0009328106507972846
-0.0008088033264667742
-0.000591101579308767
-0.0003871784237430386
-7.85379720759906e-05
6.8892957961388014e-06
4.271363393606403e-05
5.373650720988717e-05
5.649222552834297e-05
5.9247943846798756e-05
6.475938048371032e-05
7.02708171206219e-05
7.578225375753347e-05
7.853797207598924e-05
8.404940871290084e-05
8.404940871290084e-05
8.956084534981241e-05
9.23165636682682e-05
9.782800030517979e-05
0.00011160659189745871
0.00012262946517128183
0.00012262946517128183
0.00011160659189745871
0.00011160659189745871
0.00010609515526054714
0.00010058371862363556
0.00010058371862363556
0.00011436231021591448
0.00012814090180819342
0.00012814090180819342
0.00011711802853437029
0.00011436231021591448
0.00011711802853437029
0.00012262946517128183
0.0001253851834897376
0.00012814090180819342
0.00013089662012664922
0.00013640805676356078
0.00014191949340047234
0.00015018664835583973
0.00015018664835583973
0.00015294236667429551
0.00015845380331120705
0.00016672095826657444
0.0001694766765850302
0.00017498811322194178
0.00018049954985885336
0.00018601098649576498
0.00019152242313267648
0.00019427814145113231
0.00019978957808804387
0.00020254529640649968
0.00020805673304341124
0.0002218353246356902
0.00022734676127260172
0.00022734676127260172
0.00023285819790951333
0.00023561391622796914
0.00024663678950179223
0.00025214822613870384
0.0002576596627756154
0.000263171099412527
0.00026592681773098274
0.00027143825436789435
0.0002741939726863501
0.00027143825436789435
0.00026592681773098274
0.0002686825360494386
0.00026592681773098274
0.00026592681773098274
0.0002686825360494386
0.0002741939726863501
0.0002686825360494386
0.00024663678950179223
0.00022459104295414594
0.00020530101472495543
0.0001970338597695881
0.0001970338597695881
0.00018601098649576498
0.00016120952162966288
0.00014467521171892812
0.00013365233844510492
0.00011987374685282605
0.00011160659189745871
0.00010058371862363556
8.68051270313566e-05
7.578225375753347e-05
5.9247943846798756e-05
4.82250705729756e-05
4.271363393606403e-05
3.720219729915245e-05
2.8935042343785094e-05
2.8935042343785094e-05
2.8935042343785094e-05
2.6179324025329308e-05
2.3423605706873515e-05
2.3423605706873515e-05
2.066788738841773e-05
1.7912169069961946e-05
2.066788738841773e-05
2.3423605706873515e-05
2.066788738841773e-05
2.066788738841773e-05
2.3423605706873515e-05
2.3423605706873515e-05
2.3423605706873515e-05
2.3423605706873515e-05
2.6179324025329308e-05
2.8935042343785094e-05
2.8935042343785094e-05
3.444647898069667e-05
3.444647898069667e-05
3.169076066224089e-05
2.8935042343785094e-05
3.169076066224089e-05
3.169076066224089e-05
2.8935042343785094e-05
2.6179324025329308e-05
2.6179324025329308e-05
2.6179324025329308e-05
2.8935042343785094e-05
2.8935042343785094e-05
2.6179324025329308e-05
2.8935042343785094e-05
3.9957915617608246e-05
4.546935225451981e-05
3.9957915617608246e-05
2.6179324025329308e-05
1.5156450751506162e-05
1.2400732433050376e-05
1.2400732433050376e-05
1.2400732433050376e-05
1.2400732433050376e-05
9.64501411459459e-06
9.64501411459459e-06
6.8892957961388014e-06
4.133577477683014e-06
-1.377859159228559e-06
1.3778591592272275e-06
-1.377859159228559e-06
-1.377859159228559e-06
1.3778591592272275e-06
-1.377859159228559e-06
-4.133577477684346e-06
-1.377859159228559e-06
-1.377859159228559e-06
-4.133577477684346e-06
-6.889295796140132e-06
-6.889295796140132e-06
-4.133577477684346e-06
-6.889295796140132e-06
-6.889295796140132e-06
-6.889295796140132e-06
-9.64501411459592e-06
-9.64501411459592e-06
-9.64501411459592e-06
-9.64501411459592e-06
-9.64501411459592e-06
-9.64501411459592e-06
-9.64501411459592e-06
-9.64501411459592e-06
-6.889295796140132e-06
-9.64501411459592e-06
-9.64501411459592e-06
-9.64501411459592e-06
-6.889295796140132e-06
-6.889295796140132e-06
-1.240073243305171e-05
-1.240073243305171e-05
-1.240073243305171e-05
-1.240073243305171e-05
-1.240073243305171e-05
-1.240073243305171e-05
-1.5156450751507488e-05
-1.7912169069963278e-05
-1.5156450751507488e-05
-1.5156450751507488e-05
-1.240073243305171e-05
-1.240073243305171e-05
-1.5156450751507488e-05
-1.5156450751507488e-05
-1.240073243305171e-05
-1.5156450751507488e-05
-1.7912169069963278e-05
-1.7912169069963278e-05
-1.5156450751507488e-05
-9.64501411459592e-06
-1.240073243305171e-05
-1.240073243305171e-05
-1.240073243305171e-05
-1.240073243305171e-05
-1.5156450751507488e-05
-1.7912169069963278e-05
-1.7912169069963278e-05
-1.7912169069963278e-05
-1.5156450751507488e-05
-9.64501411459592e-06
-1.240073243305171e-05
-1.240073243305171e-05
-1.5156450751507488e-05
-6.889295796140132e-06
-6.889295796140132e-06
-9.64501411459592e-06
-1.240073243305171e-05
-9.64501411459592e-06
-6.889295796140132e-06
-6.889295796140132e-06
-6.889295796140132e-06
-9.64501411459592e-06
-4.133577477684346e-06
-1.377859159228559e-06
-1.377859159228559e-06
-4.133577477684346e-06
-4.133577477684346e-06
-4.133577477684346e-06
-1.377859159228559e-06
-1.377859159228559e-06
-1.377859159228559e-06
-4.133577477684346e-06
-6.889295796140132e-06
-4.133577477684346e-06
-4.133577477684346e-06
-4.133577477684346e-06
-1.377859159228559e-06
1.3778591592272275e-06
1.2400732433050376e-05
1.7912169069961946e-05
2.066788738841773e-05
2.066788738841773e-05
2.6179324025329308e-05
3.720219729915245e-05
5.098078889143139e-05
6.475938048371032e-05
8.129369039444505e-05
8.956084534981241e-05
8.129369039444505e-05
7.02708171206219e-05
5.649222552834297e-05
4.546935225451981e-05
3.444647898069667e-05
2.8935042343785094e-05
2.6179324025329308e-05
2.6179324025329308e-05
2.3423605706873515e-05
1.5156450751506162e-05
6.8892957961388014e-06
1.3778591592272275e-06
-6.889295796140132e-06
-9.64501411459592e-06
-1.240073243305171e-05
-1.5156450751507488e-05
-1.7912169069963278e-05
-1.5156450751507488e-05
-1.240073243305171e-05
-1.5156450751507488e-05
-1.7912169069963278e-05
-1.7912169069963278e-05
-1.240073243305171e-05
-1.240073243305171e-05
-1.5156450751507488e-05
-1.7912169069963278e-05
-1.7912169069963278e-05
-1.240073243305171e-05
1.3778591592272275e-06
4.546935225451981e-05
0.00024663678950179223
0.00035135408560311223
0.0005194529030289152
0.0007068417486839086
0.0006847960021362622
0.00041473560692759526
4.82250705729756e-05
-0.00031828546578164407
-0.0006407045090409712
-0.0008584062561989784
-0.0009328106507972846
-0.0008501391012436108
-0.0006572388189517057
-0.00043953707179369863
-0.0002686825360494398
-0.00012538518348973897
-2.342360570687485e-05
2.6179324025329308e-05
3.9957915617608246e-05
3.9957915617608246e-05
4.82250705729756e-05
5.373650720988717e-05
5.9247943846798756e-05
6.200366216525454e-05
6.751509880216611e-05
7.30265354390777e-05
7.578225375753347e-05
7.853797207598924e-05
8.129369039444505e-05
8.404940871290084e-05
8.129369039444505e-05
8.404940871290084e-05
8.68051270313566e-05
8.956084534981241e-05
9.23165636682682e-05
8.956084534981241e-05
8.956084534981241e-05
9.507228198672396e-05
0.00010058371862363556
0.00010609515526054714
0.00010333943694209132
0.00010609515526054714
0.00010885087357900291
0.00011436231021591448
0.00011711802853437029
0.00011711802853437029
0.00011987374685282605
0.00012262946517128183
0.0001253851834897376
0.00012814090180819342
0.00013365233844510492
0.00013640805676356078
0.00013916377508201656
0.00014467521171892812
0.00014743093003738393
0.00015018664835583973
0.0001556980849927513
0.00015845380331120705
0.00016672095826657444
0.000172232394903486
0.00017498811322194178
0.00017498811322194178
0.00017774383154039756
0.00018601098649576498
0.0001970338597695881
0.00020254529640649968
0.000210812451361867
0.00022459104295414594
0.00023285819790951333
0.00023010247959105753
0.00023561391622796914
0.0002493925078202481
0.0002686825360494386
0.0002769496910048059
0.00026592681773098274
0.00025214822613870384
0.0002493925078202481
0.00025214822613870384
0.00026592681773098274
0.00026041538109407124
0.00024112535286488067
0.00023010247959105753
0.00022459104295414594
0.0002218353246356902
0.000210812451361867
0.00020805673304341124
0.00019978957808804387
0.00018876670481422076
0.00018049954985885336
0.000172232394903486
0.00016120952162966288
0.00014467521171892812
0.00013365233844510492
0.00012262946517128183
0.00010609515526054714
9.23165636682682e-05
7.853797207598924e-05
6.200366216525454e-05
5.373650720988717e-05
5.098078889143139e-05
4.271363393606403e-05
3.720219729915245e-05
2.8935042343785094e-05
2.8935042343785094e-05
3.169076066224089e-05
2.8935042343785094e-05
2.066788738841773e-05
2.066788738841773e-05
2.066788738841773e-05
2.3423605706873515e-05
2.3423605706873515e-05
2.066788738841773e-05
1.5156450751506162e-05
1.7912169069961946e-05
2.066788738841773e-05
2.066788738841773e-05
2.3423605706873515e-05
1.7912169069961946e-05
1.7912169069961946e-05
2.3423605706873515e-05
2.3423605706873515e-05
2.6179324025329308e-05
2.3423605706873515e-05
2.3423605706873515e-05
2.6179324025329308e-05
3.169076066224089e-05
3.169076066224089e-05
2.8935042343785094e-05
2.6179324025329308e-05
2.8935042343785094e-05
2.8935042343785094e-05
2.3423605706873515e-05
2.066788738841773e-05
2.3423605706873515e-05
2.8935042343785094e-05
3.169076066224089e-05
2.8935042343785094e-05
2.3423605706873515e-05
2.3423605706873515e-05
2.3423605706873515e-05
2.3423605706873515e-05
2.3423605706873515e-05
2.3423605706873515e-05
2.066788738841773e-05
2.066788738841773e-05
2.3423605706873515e-05
1.7912169069961946e-05
1.5156450751506162e-05
1.5156450751506162e-05
1.5156450751506162e-05
1.5156450751506162e-05
1.2400732433050376e-05
1.2400732433050376e-05
1.2400732433050376e-05
1.2400732433050376e-05
9.64501411459459e-06
9.64501411459459e-06
6.8892957961388014e-06
6.8892957961388014e-06
2.066788738841773e-05
2.8935042343785094e-05
1.7912169069961946e-05
4.133577477683014e-06
-1.377859159228559e-06
-1.377859159228559e-06
-1.377859159228559e-06
1.3778591592272275e-06
-1.377859159228559e-06
-1.377859159228559e-06
1.3778591592272275e-06
1.3778591592272275e-06
-1.377859159228559e-06
-1.377859159228559e-06
1.3778591592272275e-06
-1.377859159228559e-06
1.3778591592272275e-06
1.3778591592272275e-06
-1.377859159228559e-06
-4.133577477684346e-06
-4.133577477684346e-06
-1.377859159228559e-06
-1.377859159228559e-06
-4.133577477684346e-06
-4.133577477684346e-06
-1.377859159228559e-06
-4.133577477684346e-06
-6.889295796140132e-06
-6.889295796140132e-06
-6.889295796140132e-06
-6.889295796140132e-06
-9.64501411459592e-06
-6.889295796140132e-06
-6.889295796140132e-06
-9.64501411459592e-06
-6.889295796140132e-06
-4.133577477684346e-06
-4.133577477684346e-06
-6.889295796140132e-06
-4.133577477684346e-06
-1.377859159228559e-06
-1.377859159228559e-06
-6.889295796140132e-06
-6.889295796140132e-06
-9.64501411459592e-06
-6.889295796140132e-06
-6.889295796140132e-06
-9.64501411459592e-06
-9.64501411459592e-06
-9.64501411459592e-06
-1.5156450751507488e-05
-1.240073243305171e-05
-6.889295796140132e-06
-6.889295796140132e-06
-6.889295796140132e-06
-9.64501411459592e-06
-9.64501411459592e-06
-9.64501411459592e-06
-9.64501411459592e-06
-9.64501411459592e-06
-9.64501411459592e-06
-9.64501411459592e-06
-6.889295796140132e-06
-6.889295796140132e-06
-1.240073243305171e-05
-1.240073243305171e-05
-1.240073243305171e-05
-1.240073243305171e-05
-9.64501411459592e-06
-9.64501411459592e-06
-9.64501411459592e-06
-1.240073243305171e-05
-1.240073243305171e-05
-1.240073243305171e-05
-1.240073243305171e-05
-1.5156450751507488e-05
-1.240073243305171e-05
-6.889295796140132e-06
1.3778591592272275e-06
1.2400732433050376e-05
6.8892957961388014e-06
-9.64501411459592e-06
-1.5156450751507488e-05
-1.5156450751507488e-05
-6.889295796140132e-06
4.133577477683014e-06
9.64501411459459e-06
4.133577477683014e-06
-1.377859159228559e-06
4.133577477683014e-06
6.8892957961388014e-06
1.5156450751506162e-05
2.3423605706873515e-05
3.169076066224089e-05
4.546935225451981e-05
6.475938048371032e-05
8.129369039444505e-05
8.129369039444505e-05
6.751509880216611e-05
5.098078889143139e-05
3.9957915617608246e-05
2.8935042343785094e-05
2.3423605706873515e-05
2.3423605706873515e-05
2.066788738841773e-05
1.2400732433050376e-05
4.133577477683014e-06
-1.377859159228559e-06
-1.240073243305171e-05
-1.5156450751507488e-05
-2.066788738841907e-05
-2.342360570687485e-05
-2.066788738841907e-05
-2.066788738841907e-05
-2.066788738841907e-05
-2.342360570687485e-05
-2.342360570687485e-05
-2.342360570687485e-05
-2.066788738841907e-05
-2.066788738841907e-05
-2.066788738841907e-05
-2.066788738841907e-05
-1.7912169069963278e-05
-1.7912169069963278e-05
-1.5156450751507488e-05
-1.377859159228559e-06
4.82250705729756e-05
0.00014467521171892812
0.00025214822613870384
0.0003568655222400236
0.0005222086213473709
0.0006985745937285414
0.0006655059739070718
0.000392689860379949
3.444647898069667e-05
-0.00031828546578164407
-0.0006351930724040594
-0.0008418719462882435
-0.0009052534676127264
-0.0008253376363775088
-0.0006379487907225153
-0.00043678135347524285
-0.00027143825436789566
-0.00013089662012665053
-2.8935042343786426e-05
1.7912169069961946e-05
3.169076066224089e-05
3.720219729915245e-05
4.271363393606403e-05
4.546935225451981e-05
5.098078889143139e-05
5.373650720988717e-05
5.649222552834297e-05
5.9247943846798756e-05
6.751509880216611e-05
7.02708171206219e-05
7.02708171206219e-05
7.02708171206219e-05
7.02708171206219e-05
7.30265354390777e-05
7.853797207598924e-05
7.578225375753347e-05
7.578225375753347e-05
7.578225375753347e-05
8.129369039444505e-05
8.68051270313566e-05
8.68051270313566e-05
8.68051270313566e-05
9.507228198672396e-05
9.782800030517979e-05
9.782800030517979e-05
0.00010058371862363556
0.00010333943694209132
0.00010885087357900291
0.00011160659189745871
0.00011160659189745871
0.00011436231021591448
0.00011711802853437029
0.00012262946517128183
0.0001253851834897376
0.0001253851834897376
0.00012814090180819342
0.00012814090180819342
0.00013640805676356078
0.00014743093003738393
0.00015294236667429551
0.0001556980849927513
0.00016120952162966288
0.00016672095826657444
0.000172232394903486
0.00017498811322194178
0.00017774383154039756
0.00018601098649576498
0.00019152242313267648
0.0001970338597695881
0.00020254529640649968
0.00020805673304341124
0.0002135681696803228
0.00021632388799877858
0.0002218353246356902
0.00022459104295414594
0.00022734676127260172
0.00022734676127260172
0.00023010247959105753
0.00023285819790951333
0.00022734676127260172
0.00023010247959105753
0.00022734676127260172
0.0002190796063172344
0.00021632388799877858
0.0002135681696803228
0.00020805673304341124
0.00019978957808804387
0.00019152242313267648
0.00018049954985885336
0.000172232394903486
0.00016396523994811866
0.00015018664835583973
0.00013640805676356078
0.00012262946517128183
0.00011436231021591448
0.00010333943694209132
8.956084534981241e-05
7.578225375753347e-05
6.475938048371032e-05
5.373650720988717e-05
4.546935225451981e-05
3.720219729915245e-05
2.8935042343785094e-05
2.066788738841773e-05
2.3423605706873515e-05
2.066788738841773e-05
1.7912169069961946e-05
1.5156450751506162e-05
9.64501411459459e-06
9.64501411459459e-06
1.2400732433050376e-05
1.2400732433050376e-05
9.64501411459459e-06
1.2400732433050376e-05
1.5156450751506162e-05
1.7912169069961946e-05
1.5156450751506162e-05
1.7912169069961946e-05
1.7912169069961946e-05
2.066788738841773e-05
2.3423605706873515e-05
2.3423605706873515e-05
2.3423605706873515e-05
2.6179324025329308e-05
2.6179324025329308e-05
2.8935042343785094e-05
2.8935042343785094e-05
2.6179324025329308e-05
2.6179324025329308e-05
2.6179324025329308e-05
2.6179324025329308e-05
2.6179324025329308e-05
2.6179324025329308e-05
2.3423605706873515e-05
2.3423605706873515e-05
2.3423605706873515e-05
2.3423605706873515e-05
2.3423605706873515e-05
1.7912169069961946e-05
1.7912169069961946e-05
1.5156450751506162e-05
1.5156450751506162e-05
1.5156450751506162e-05
1.2400732433050376e-05
1.5156450751506162e-05
1.7912169069961946e-05
1.2400732433050376e-05
9.64501411459459e-06
6.8892957961388014e-06
6.8892957961388014e-06
9.64501411459459e-06
9.64501411459459e-06
6.8892957961388014e-06
1.3778591592272275e-06
1.3778591592272275e-06
1.3778591592272275e-06
-1.377859159228559e-06
-4.133577477684346e-06
-6.889295796140132e-06
-9.64501411459592e-06
-4.133577477684346e-06
-6.889295796140132e-06
-6.889295796140132e-06
-1.377859159228559e-06
9.64501411459459e-06
1.5156450751506162e-05
1.3778591592272275e-06
-9.64501411459592e-06
-1.5156450751507488e-05
-1.7912169069963278e-05
-1.5156450751507488e-05
-9.64501411459592e-06
-1.377859159228559e-06
6.8892957961388014e-06
-4.133577477684346e-06
-1.377859159228559e-06
-1.377859159228559e-06
-1.5156450751507488e-05
-2.066788738841907e-05
-1.240073243305171e-05
-9.64501411459592e-06
-9.64501411459592e-06
-1.240073243305171e-05
-1.5156450751507488e-05
-1.240073243305171e-05
-6.889295796140132e-06
-4.133577477684346e-06
-4.133577477684346e-06
-4.133577477684346e-06
-1.377859159228559e-06
-1.377859159228559e-06
-4.133577477684346e-06
-4.133577477684346e-06
-6.889295796140132e-06
-6.889295796140132e-06
-6.889295796140132e-06
-6.889295796140132e-06
-6.889295796140132e-06
-9.64501411459592e-06
-9.64501411459592e-06
-6.889295796140132e-06
-4.133577477684346e-06
-4.133577477684346e-06
-4.133577477684346e-06
-4.133577477684346e-06
-1.377859159228559e-06
-6.889295796140132e-06
-9.64501411459592e-06
-9.64501411459592e-06
-1.240073243305171e-05
-9.64501411459592e-06
-6.889295796140132e-06
-9.64501411459592e-06
-9.64501411459592e-06
-9.64501411459592e-06
-6.889295796140132e-06
-4.133577477684346e-06
-1.377859159228559e-06
-1.377859159228559e-06
-4.133577477684346e-06
-6.889295796140132e-06
-6.889295796140132e-06
-1.377859159228559e-06
-4.133577477684346e-06
-6.889295796140132e-06
-9.64501411459592e-06
-9.64501411459592e-06
-9.64501411459592e-06
-6.889295796140132e-06
-6.889295796140132e-06
-9.64501411459592e-06
-6.889295796140132e-06
-4.133577477684346e-06
-4.133577477684346e-06
-6.889295796140132e-06
-1.240073243305171e-05
-6.889295796140132e-06
-4.133577477684346e-06
-9.64501411459592e-06
-6.889295796140132e-06
-6.889295796140132e-06
-6.889295796140132e-06
-6.889295796140132e-06
-6.889295796140132e-06
-4.133577477684346e-06
4.133577477683014e-06
1.5156450751506162e-05
1.7912169069961946e-05
2.066788738841773e-05
3.169076066224089e-05
3.9957915617608246e-05
3.720219729915245e-05
3.9957915617608246e-05
6.200366216525454e-05
7.578225375753347e-05
7.578225375753347e-05
7.30265354390777e-05
6.200366216525454e-05
4.546935225451981e-05
3.169076066224089e-05
2.3423605706873515e-05
2.3423605706873515e-05
2.3423605706873515e-05
2.066788738841773e-05
1.7912169069961946e-05
9.64501411459459e-06
1.3778591592272275e-06
-9.64501411459592e-06
-1.5156450751507488e-05
-2.066788738841907e-05
-2.342360570687485e-05
-2.066788738841907e-05
-1.7912169069963278e-05
-1.7912169069963278e-05
-1.7912169069963278e-05
-1.7912169069963278e-05
-1.7912169069963278e-05
-1.7912169069963278e-05
-1.5156450751507488e-05
-1.7912169069963278e-05
-1.5156450751507488e-05
-1.240073243305171e-05
-1.240073243305171e-05
-1.240073243305171e-05
-6.889295796140132e-06
4.133577477683014e-06
5.373650720988717e-05
0.00014467521171892812
0.00025214822613870384
0.0003596212405584795
0.0005304757763027383
0.0007068417486839086
0.0006544831006332488
0.0003733998321507585
3.444647898069667e-05
-0.0003100183108262768
-0.0006186587624933248
-0.0008088033264667742
-0.0008639176928358897
-0.0007922690165560394
-0.000615903044174869
-0.0004202470435645082
-0.0002631710994125282
-2.6179324025330647e-05
2.066788738841773e-05
2.8935042343785094e-05
2.8935042343785094e-05
3.720219729915245e-05
4.82250705729756e-05
5.649222552834297e-05
5.9247943846798756e-05
6.200366216525454e-05
6.751509880216611e-05
7.02708171206219e-05
7.30265354390777e-05
7.02708171206219e-05
7.02708171206219e-05
7.30265354390777e-05
7.578225375753347e-05
7.578225375753347e-05
7.578225375753347e-05
7.578225375753347e-05
7.853797207598924e-05
7.853797207598924e-05
8.129369039444505e-05
8.404940871290084e-05
8.404940871290084e-05
8.68051270313566e-05
9.23165636682682e-05
9.782800030517979e-05
9.507228198672396e-05
9.23165636682682e-05
9.782800030517979e-05
0.00010333943694209132
0.00010609515526054714
0.00010885087357900291
0.00010609515526054714
0.00011160659189745871
0.00011711802853437029
0.00011987374685282605
0.0001253851834897376
0.0001253851834897376
0.00012814090180819342
0.00013365233844510492
0.00013916377508201656
0.00014191949340047234
0.00014191949340047234
0.00014743093003738393
0.0001556980849927513
0.00015845380331120705
0.00016120952162966288
0.00016672095826657444
0.0001694766765850302
0.00017774383154039756
0.00018601098649576498
0.00019427814145113231
0.0001970338597695881
0.00019978957808804387
0.000210812451361867
0.0002190796063172344
0.0002190796063172344
0.0002190796063172344
0.0002218353246356902
0.00022459104295414594
0.00023010247959105753
0.00022734676127260172
0.00022459104295414594
0.0002190796063172344
0.0002135681696803228
0.00020805673304341124
0.00019978957808804387
0.00019152242313267648
0.00018049954985885336
0.00017498811322194178
0.00016672095826657444
0.0001556980849927513
0.00014467521171892812
0.00013089662012664922
0.00011987374685282605
0.00011160659189745871
9.782800030517979e-05
9.23165636682682e-05
9.23165636682682e-05
8.129369039444505e-05
5.649222552834297e-05
3.720219729915245e-05
2.3423605706873515e-05
1.7912169069961946e-05
1.5156450751506162e-05
1.2400732433050376e-05
1.2400732433050376e-05
1.2400732433050376e-05
6.8892957961388014e-06
1.3778591592272275e-06
1.3778591592272275e-06
4.133577477683014e-06
4.133577477683014e-06
4.133577477683014e-06
6.8892957961388014e-06
9.64501411459459e-06
9.64501411459459e-06
9.64501411459459e-06
6.8892957961388014e-06
6.8892957961388014e-06
1.2400732433050376e-05
1.7912169069961946e-05
2.066788738841773e-05
2.066788738841773e-05
2.066788738841773e-05
1.7912169069961946e-05
2.066788738841773e-05
2.066788738841773e-05
1.7912169069961946e-05
1.5156450751506162e-05
1.7912169069961946e-05
2.066788738841773e-05
2.3423605706873515e-05
2.3423605706873515e-05
2.066788738841773e-05
1.5156450751506162e-05
1.7912169069961946e-05
2.066788738841773e-05
2.066788738841773e-05
1.7912169069961946e-05
1.5156450751506162e-05
1.7912169069961946e-05
1.7912169069961946e-05
2.066788738841773e-05
1.7912169069961946e-05
1.5156450751506162e-05
1.5156450751506162e-05
1.5156450751506162e-05
1.7912169069961946e-05
1.5156450751506162e-05
1.5156450751506162e-05
1.5156450751506162e-05
1.2400732433050376e-05
9.64501411459459e-06
4.133577477683014e-06
6.8892957961388014e-06
6.8892957961388014e-06
4.133577477683014e-06
1.3778591592272275e-06
1.3778591592272275e-06
1.3778591592272275e-06
1.3778591592272275e-06
1.3778591592272275e-06
-1.377859159228559e-06
-4.133577477684346e-06
-4.133577477684346e-06
-4.133577477684346e-06
-4.133577477684346e-06
-6.889295796140132e-06
-9.64501411459592e-06
-6.889295796140132e-06
-4.133577477684346e-06
-6.889295796140132e-06
-9.64501411459592e-06
-9.64501411459592e-06
-9.64501411459592e-06
-6.889295796140132e-06
-9.64501411459592e-06
-9.64501411459592e-06
-9.64501411459592e-06
-1.240073243305171e-05
-9.64501411459592e-06
-6.889295796140132e-06
-6.889295796140132e-06
-9.64501411459592e-06
-1.240073243305171e-05
-4.133577477684346e-06
-4.133577477684346e-06
-9.64501411459592e-06
-9.64501411459592e-06
-6.889295796140132e-06
-6.889295796140132e-06
-4.133577477684346e-06
-1.377859159228559e-06
-4.133577477684346e-06
-6.889295796140132e-06
-9.64501411459592e-06
-1.240073243305171e-05
-1.240073243305171e-05
-1.240073243305171e-05
-1.240073243305171e-05
-1.5156450751507488e-05
-1.5156450751507488e-05
-9.64501411459592e-06
-9.64501411459592e-06
-1.240073243305171e-05
-1.240073243305171e-05
-9.64501411459592e-06
-9.64501411459592e-06
-9.64501411459592e-06
-1.240073243305171e-05
-1.7912169069963278e-05
-1.5156450751507488e-05
-1.240073243305171e-05
-1.5156450751507488e-05
-1.5156450751507488e-05
-1.240073243305171e-05
-9.64501411459592e-06
-1.240073243305171e-05
-1.5156450751507488e-05
-1.7912169069963278e-05
-1.7912169069963278e-05
-1.5156450751507488e-05
-1.240073243305171e-05
-1.5156450751507488e-05
-1.7912169069963278e-05
-1.5156450751507488e-05
-9.64501411459592e-06
-1.240073243305171e-05
-6.889295796140132e-06
-9.64501411459592e-06
-1.5156450751507488e-05
-1.5156450751507488e-05
-1.5156450751507488e-05
-1.240073243305171e-05
-9.64501411459592e-06
-1.240073243305171e-05
-1.240073243305171e-05
-6.889295796140132e-06
-4.133577477684346e-06
-4.133577477684346e-06
-4.133577477684346e-06
-1.377859159228559e-06
1.3778591592272275e-06
-1.377859159228559e-06
-1.377859159228559e-06
-1.377859159228559e-06
4.133577477683014e-06
1.2400732433050376e-05
1.5156450751506162e-05
1.7912169069961946e-05
1.7912169069961946e-05
2.066788738841773e-05
2.8935042343785094e-05
4.271363393606403e-05
6.200366216525454e-05
7.578225375753347e-05
8.404940871290084e-05
8.129369039444505e-05
6.751509880216611e-05
5.098078889143139e-05
3.720219729915245e-05
2.6179324025329308e-05
2.3423605706873515e-05
2.3423605706873515e-05
2.3423605706873515e-05
2.066788738841773e-05
9.64501411459459e-06
-6.889295796140132e-06
-1.5156450751507488e-05
-2.342360570687485e-05
-2.6179324025330647e-05
-2.8935042343786426e-05
-2.8935042343786426e-05
-2.6179324025330647e-05
-2.6179324025330647e-05
-2.8935042343786426e-05
-2.8935042343786426e-05
-2.6179324025330647e-05
-2.6179324025330647e-05
-2.6179324025330647e-05
-2.8935042343786426e-05
-2.8935042343786426e-05
-2.6179324025330647e-05
-2.6179324025330647e-05
-2.6179324025330647e-05
-6.889295796140132e-06
6.200366216525454e-05
0.0001694766765850302
0.0002741939726863501
0.0004009570153353164
0.0005966130159456772
0.000717864621957732
0.0005745672693980309
0.00024112535286488067
-0.0001364080567635621
-0.0004918957198443586
-0.0007702232700083929
-0.0009217877775234612
-0.0009272992141603728
-0.0007922690165560394
-0.0005828344243533996
-0.0003816669871061273
-0.0002218353246356915
-8.404940871290214e-05
-1.377859159228559e-06
2.8935042343785094e-05
3.169076066224089e-05
3.720219729915245e-05
4.271363393606403e-05
5.098078889143139e-05
5.373650720988717e-05
5.649222552834297e-05
5.9247943846798756e-05
6.475938048371032e-05
6.751509880216611e-05
7.02708171206219e-05
7.30265354390777e-05
7.02708171206219e-05
7.853797207598924e-05
7.853797207598924e-05
7.853797207598924e-05
8.129369039444505e-05
8.129369039444505e-05
8.404940871290084e-05
8.404940871290084e-05
8.68051270313566e-05
8.68051270313566e-05
8.956084534981241e-05
9.23165636682682e-05
9.507228198672396e-05
9.782800030517979e-05
0.00010058371862363556
0.00010058371862363556
0.00010333943694209132
0.00011160659189745871
0.00011987374685282605
0.00011711802853437029
0.00011987374685282605
0.0001253851834897376
0.00012814090180819342
0.00013365233844510492
0.00013640805676356078
0.00013640805676356078
0.00014191949340047234
0.00014467521171892812
0.00015294236667429551
0.00015845380331120705
0.00016672095826657444
0.00017498811322194178
0.00018049954985885336
0.0001832552681773092
0.00018601098649576498
0.00018876670481422076
0.0001970338597695881
0.00020805673304341124
0.000210812451361867
0.0002190796063172344
0.00022459104295414594
0.00023285819790951333
0.0002383696345464249
0.00024112535286488067
0.00024663678950179223
0.000263171099412527
0.00027143825436789435
0.000263171099412527
0.00024663678950179223
0.00024112535286488067
0.0002383696345464249
0.00023561391622796914
0.00023285819790951333
0.0002383696345464249
0.00024112535286488067
0.00023285819790951333
0.00021632388799877858
0.00019152242313267648
0.000172232394903486
0.00016120952162966288
0.00014743093003738393
0.00013640805676356078
0.00012814090180819342
0.00011436231021591448
9.782800030517979e-05
8.404940871290084e-05
7.02708171206219e-05
5.9247943846798756e-05
4.82250705729756e-05
3.9957915617608246e-05
3.169076066224089e-05
2.6179324025329308e-05
2.066788738841773e-05
1.5156450751506162e-05
9.64501411459459e-06
6.8892957961388014e-06
1.3778591592272275e-06
1.3778591592272275e-06
4.133577477683014e-06
4.133577477683014e-06
4.133577477683014e-06
4.133577477683014e-06
4.133577477683014e-06
9.64501411459459e-06
1.2400732433050376e-05
9.64501411459459e-06
6.8892957961388014e-06
1.2400732433050376e-05
1.5156450751506162e-05
1.7912169069961946e-05
1.7912169069961946e-05
1.7912169069961946e-05
1.7912169069961946e-05
1.7912169069961946e-05
1.7912169069961946e-05
1.7912169069961946e-05
2.066788738841773e-05
2.066788738841773e-05
2.3423605706873515e-05
2.3423605706873515e-05
2.3423605706873515e-05
2.3423605706873515e-05
2.6179324025329308e-05
2.6179324025329308e-05
2.6179324025329308e-05
2.3423605706873515e-05
2.3423605706873515e-05
2.3423605706873515e-05
2.6179324025329308e-05
2.6179324025329308e-05
2.3423605706873515e-05
2.3423605706873515e-05
2.066788738841773e-05
2.6179324025329308e-05
2.3423605706873515e-05
1.5156450751506162e-05
1.2400732433050376e-05
1.2400732433050376e-05
1.2400732433050376e-05
9.64501411459459e-06
1.2400732433050376e-05
1.2400732433050376e-05
6.8892957961388014e-06
1.3778591592272275e-06
4.133577477683014e-06
4.133577477683014e-06
-1.377859159228559e-06
-6.889295796140132e-06
-6.889295796140132e-06
-6.889295796140132e-06
-9.64501411459592e-06
-9.64501411459592e-06
-1.240073243305171e-05
-9.64501411459592e-06
-9.64501411459592e-06
-9.64501411459592e-06
-1.240073243305171e-05
-1.5156450751507488e-05
-1.5156450751507488e-05
-9.64501411459592e-06
-9.64501411459592e-06
-1.240073243305171e-05
-1.5156450751507488e-05
-1.5156450751507488e-05
-1.5156450751507488e-05
-1.240073243305171e-05
-1.240073243305171e-05
-1.5156450751507488e-05
-1.5156450751507488e-05
-1.5156450751507488e-05
-9.64501411459592e-06
-9.64501411459592e-06
-6.889295796140132e-06
9.64501411459459e-06
1.2400732433050376e-05
-1.377859159228559e-06
-1.240073243305171e-05
-9.64501411459592e-06
-1.7912169069963278e-05
-2.342360570687485e-05
-2.342360570687485e-05
-2.342360570687485e-05
-2.342360570687485e-05
-2.066788738841907e-05
-1.7912169069963278e-05
-2.066788738841907e-05
-2.066788738841907e-05
-2.342360570687485e-05
-2.066788738841907e-05
-1.7912169069963278e-05
-1.5156450751507488e-05
-1.7912169069963278e-05
-1.7912169069963278e-05
-1.7912169069963278e-05
-1.7912169069963278e-05
-1.5156450751507488e-05
-1.5156450751507488e-05
-1.5156450751507488e-05
-1.5156450751507488e-05
-1.5156450751507488e-05
-1.5156450751507488e-05
-1.5156450751507488e-05
-1.7912169069963278e-05
-2.066788738841907e-05
-2.066788738841907e-05
-2.066788738841907e-05
-2.066788738841907e-05
-2.342360570687485e-05
-2.342360570687485e-05
-2.066788738841907e-05
-1.7912169069963278e-05
-1.5156450751507488e-05
-1.5156450751507488e-05
-1.7912169069963278e-05
-1.7912169069963278e-05
-1.5156450751507488e-05
-1.5156450751507488e-05
-1.5156450751507488e-05
-1.5156450751507488e-05
-1.7912169069963278e-05
-1.240073243305171e-05
-1.5156450751507488e-05
-2.066788738841907e-05
-2.066788738841907e-05
-1.7912169069963278e-05
-1.5156450751507488e-05
-1.240073243305171e-05
-1.7912169069963278e-05
-2.066788738841907e-05
-2.066788738841907e-05
-2.066788738841907e-05
-1.7912169069963278e-05
-1.7912169069963278e-05
-2.066788738841907e-05
-1.7912169069963278e-05
-6.889295796140132e-06
1.3778591592272275e-06
4.133577477683014e-06
6.8892957961388014e-06
9.64501411459459e-06
1.2400732433050376e-05
2.3423605706873515e-05
3.169076066224089e-05
6.475938048371032e-05
7.578225375753347e-05
7.02708171206219e-05
5.649222552834297e-05
4.271363393606403e-05
2.6179324025329308e-05
1.7912169069961946e-05
1.7912169069961946e-05
1.7912169069961946e-05
1.5156450751506162e-05
6.8892957961388014e-06
-1.377859159228559e-06
-6.889295796140132e-06
-1.7912169069963278e-05
-2.6179324025330647e-05
-3.169076066224221e-05
-3.169076066224221e-05
-3.4446478980697995e-05
-3.4446478980697995e-05
-3.4446478980697995e-05
-3.169076066224221e-05
-3.169076066224221e-05
-2.8935042343786426e-05
-2.8935042343786426e-05
-2.8935042343786426e-05
-2.8935042343786426e-05
-2.342360570687485e-05
-6.889295796140132e-06
-4.133577477684346e-06
-1.5156450751507488e-05
-2.342360570687485e-05
-6.889295796140132e-06
5.098078889143139e-05
0.00015018664835583973
0.0002549039444571596
0.0003623769588769353
0.0005359872129396498
0.000701330312046997
0.0006241701991302349
0.00032379690241855427
-3.169076066224221e-05
-0.00037615555046921565
-0.0006737731288624405
-0.0008528948195620666
-0.000899742030975815
-0.0008032918898298626
-0.0006131473258564133
-0.0004147356069275966
-0.0002549039444571609
-0.00011436231021591582
-2.342360570687485e-05
1.2400732433050376e-05
2.066788738841773e-05
2.6179324025329308e-05
3.169076066224089e-05
3.9957915617608246e-05
4.546935225451981e-05
5.098078889143139e-05
5.373650720988717e-05
5.649222552834297e-05
6.200366216525454e-05
6.475938048371032e-05
6.475938048371032e-05
6.751509880216611e-05
7.02708171206219e-05
7.02708171206219e-05
7.578225375753347e-05
7.853797207598924e-05
8.129369039444505e-05
8.129369039444505e-05
8.129369039444505e-05
7.853797207598924e-05
8.129369039444505e-05
8.404940871290084e-05
8.68051270313566e-05
8.68051270313566e-05
8.68051270313566e-05
9.23165636682682e-05
9.782800030517979e-05
9.782800030517979e-05
0.00010609515526054714
0.00010885087357900291
0.00010885087357900291
0.00011160659189745871
0.00011160659189745871
0.00011436231021591448
0.00011711802853437029
0.00011987374685282605
0.00012262946517128183
0.0001253851834897376
0.00013365233844510492
0.00013365233844510492
0.00013640805676356078
0.00013916377508201656
0.00014191949340047234
0.00015018664835583973
0.00015294236667429551
0.00015845380331120705
0.00016396523994811866
0.000172232394903486
0.00017498811322194178
0.00018049954985885336
0.00018601098649576498
0.00019152242313267648
0.00019978957808804387
0.00020530101472495543
0.00020530101472495543
0.00020805673304341124
0.000210812451361867
0.00021632388799877858
0.00021632388799877858
0.000210812451361867
0.00020805673304341124
0.00020530101472495543
0.00020530101472495543
0.00020254529640649968
0.0001970338597695881
0.00018876670481422076
0.00017498811322194178
0.00016672095826657444
0.00015845380331120705
0.00014743093003738393
0.00013089662012664922
0.00011987374685282605
0.00010885087357900291
0.00010333943694209132
8.956084534981241e-05
7.578225375753347e-05
5.9247943846798756e-05
4.82250705729756e-05
3.9957915617608246e-05
1.5156450751506162e-05
4.133577477683014e-06
-1.377859159228559e-06
-6.889295796140132e-06
-9.64501411459592e-06
-1.240073243305171e-05
-1.5156450751507488e-05
-1.7912169069963278e-05
-2.066788738841907e-05
-2.342360570687485e-05
-2.6179324025330647e-05
-2.342360570687485e-05
-2.066788738841907e-05
-1.7912169069963278e-05
-2.066788738841907e-05
-1.7912169069963278e-05
-1.7912169069963278e-05
-2.342360570687485e-05
-2.342360570687485e-05
-1.5156450751507488e-05
-1.240073243305171e-05
-1.5156450751507488e-05
-1.5156450751507488e-05
-1.240073243305171e-05
-1.240073243305171e-05
-1.5156450751507488e-05
-1.5156450751507488e-05
-1.7912169069963278e-05
-1.7912169069963278e-05
-1.5156450751507488e-05
-9.64501411459592e-06
-9.64501411459592e-06
-1.240073243305171e-05
-1.240073243305171e-05
-1.5156450751507488e-05
-1.240073243305171e-05
-9.64501411459592e-06
-9.64501411459592e-06
-9.64501411459592e-06
-6.889295796140132e-06
-6.889295796140132e-06
-9.64501411459592e-06
-1.240073243305171e-05
-1.240073243305171e-05
-9.64501411459592e-06
-1.240073243305171e-05
-1.5156450751507488e-05
-1.7912169069963278e-05
-1.7912169069963278e-05
-2.066788738841907e-05
-2.066788738841907e-05
-2.066788738841907e-05
-2.342360570687485e-05
-2.342360570687485e-05
-2.066788738841907e-05
-2.066788738841907e-05
-2.066788738841907e-05
-2.066788738841907e-05
-2.342360570687485e-05
-2.6179324025330647e-05
-2.8935042343786426e-05
-2.8935042343786426e-05
-2.8935042343786426e-05
-3.169076066224221e-05
-3.169076066224221e-05
-2.6179324025330647e-05
-2.342360570687485e-05
-2.342360570687485e-05
-1.240073243305171e-05
-6.889295796140132e-06
-1.7912169069963278e-05
-2.8935042343786426e-05
-3.4446478980697995e-05
-3.4446478980697995e-05
-3.169076066224221e-05
-2.342360570687485e-05
-9.64501411459592e-06
-1.7912169069963278e-05
-3.4446478980697995e-05
-3.995791561760957e-05
-3.995791561760957e-05
-3.720219729915378e-05
-3.4446478980697995e-05
-3.720219729915378e-05
-3.4446478980697995e-05
-3.169076066224221e-05
-2.8935042343786426e-05
-2.6179324025330647e-05
-3.169076066224221e-05
-3.169076066224221e-05
-2.8935042343786426e-05
-2.6179324025330647e-05
-2.342360570687485e-05
-2.6179324025330647e-05
-2.8935042343786426e-05
-2.8935042343786426e-05
-2.8935042343786426e-05
-3.169076066224221e-05
-3.4446478980697995e-05
-3.4446478980697995e-05
-3.169076066224221e-05
-3.169076066224221e-05
-3.720219729915378e-05
-3.720219729915378e-05
-3.720219729915378e-05
-3.4446478980697995e-05
-3.169076066224221e-05
-3.4446478980697995e-05
-3.720219729915378e-05
-3.720219729915378e-05
-3.4446478980697995e-05
-3.169076066224221e-05
-2.8935042343786426e-05
-3.169076066224221e-05
-3.169076066224221e-05
-3.4446478980697995e-05
-3.4446478980697995e-05
-3.4446478980697995e-05
-3.4446478980697995e-05
-3.720219729915378e-05
-3.169076066224221e-05
-2.8935042343786426e-05
-2.8935042343786426e-05
-2.8935042343786426e-05
-3.169076066224221e-05
-3.169076066224221e-05
-2.8935042343786426e-05
-2.8935042343786426e-05
-2.8935042343786426e-05
-2.8935042343786426e-05
-2.6179324025330647e-05
-2.6179324025330647e-05
-2.6179324025330647e-05
-2.6179324025330647e-05
-2.6179324025330647e-05
-2.6179324025330647e-05
-2.342360570687485e-05
-2.6179324025330647e-05
-2.8935042343786426e-05
-2.6179324025330647e-05
-1.7912169069963278e-05
-9.64501411459592e-06
-4.133577477684346e-06
1.3778591592272275e-06
-1.377859159228559e-06
1.3778591592272275e-06
6.8892957961388014e-06
1.7912169069961946e-05
3.720219729915245e-05
5.649222552834297e-05
7.578225375753347e-05
7.30265354390777e-05
5.373650720988717e-05
3.169076066224089e-05
9.64501411459459e-06
1.3778591592272275e-06
1.2400732433050376e-05
2.3423605706873515e-05
1.5156450751506162e-05
-6.889295796140132e-06
-2.066788738841907e-05
-3.169076066224221e-05
-2.8935042343786426e-05
-2.8935042343786426e-05
-4.5469352254521147e-05
-5.6492225528344285e-05
-4.8225070572976926e-05
-3.720219729915378e-05
-4.2713633936065354e-05
-5.3736507209888505e-05
-5.6492225528344285e-05
-5.9247943846800084e-05
-5.9247943846800084e-05
-5.6492225528344285e-05
-5.6492225528344285e-05
-5.9247943846800084e-05
-5.9247943846800084e-05
-5.6492225528344285e-05
-5.3736507209888505e-05
-3.4446478980697995e-05
1.7912169069961946e-05
0.00011160659189745871
0.0002218353246356902
0.0003348197756923775
0.0005166971847104594
0.000679284565499351
0.0005966130159456772
0.00030450687418936376
-3.169076066224221e-05
-0.00037339983215075977
-0.0006792845654993521
-0.0008611619745174342
-0.0009052534676127264
-0.0008253376363775088
-0.0006434602273594267
-0.00044504850843061025
-0.00014743093003738526
-5.3736507209888505e-05
-1.240073243305171e-05
1.3778591592272275e-06
6.8892957961388014e-06
1.2400732433050376e-05
1.7912169069961946e-05
2.066788738841773e-05
2.6179324025329308e-05
2.6179324025329308e-05
3.169076066224089e-05
3.444647898069667e-05
3.720219729915245e-05
3.9957915617608246e-05
3.9957915617608246e-05
4.271363393606403e-05
4.271363393606403e-05
4.546935225451981e-05
4.546935225451981e-05
4.82250705729756e-05
4.82250705729756e-05
4.82250705729756e-05
5.373650720988717e-05
5.649222552834297e-05
5.649222552834297e-05
6.200366216525454e-05
6.751509880216611e-05
7.02708171206219e-05
7.30265354390777e-05
7.30265354390777e-05
7.30265354390777e-05
7.578225375753347e-05
7.853797207598924e-05
8.129369039444505e-05
8.404940871290084e-05
8.68051270313566e-05
8.68051270313566e-05
8.956084534981241e-05
9.507228198672396e-05
9.782800030517979e-05
0.00010058371862363556
0.00010333943694209132
0.00010885087357900291
0.00011160659189745871
0.00011987374685282605
0.0001253851834897376
0.00013089662012664922
0.00013640805676356078
0.00014467521171892812
0.00015018664835583973
0.00014743093003738393
0.00015018664835583973
0.0001556980849927513
0.00016396523994811866
0.0001694766765850302
0.00017498811322194178
0.00018049954985885336
0.0001832552681773092
0.00018876670481422076
0.00019427814145113231
0.0001970338597695881
0.00019978957808804387
0.00020254529640649968
0.00020254529640649968
0.00019978957808804387
0.00018876670481422076
0.00018601098649576498
0.0001832552681773092
0.00017774383154039756
0.0001694766765850302
0.00016120952162966288
0.00015294236667429551
0.00014191949340047234
0.00012814090180819342
0.00011711802853437029
0.00010609515526054714
8.956084534981241e-05
7.30265354390777e-05
6.751509880216611e-05
5.373650720988717e-05
3.720219729915245e-05
2.3423605706873515e-05
1.2400732433050376e-05
4.133577477683014e-06
-6.889295796140132e-06
-1.240073243305171e-05
-1.7912169069963278e-05
-2.066788738841907e-05
-2.6179324025330647e-05
-2.8935042343786426e-05
-2.8935042343786426e-05
-3.169076066224221e-05
-3.169076066224221e-05
-2.8935042343786426e-05
-1.5156450751507488e-05
-4.133577477684346e-06
-4.133577477684346e-06
-1.5156450751507488e-05
-2.8935042343786426e-05
-3.720219729915378e-05
-3.4446478980697995e-05
-2.342360570687485e-05
-1.5156450751507488e-05
-2.066788738841907e-05
-3.169076066224221e-05
-3.169076066224221e-05
-3.169076066224221e-05
-2.8935042343786426e-05
-2.342360570687485e-05
-2.066788738841907e-05
-2.342360570687485e-05
-2.342360570687485e-05
-2.6179324025330647e-05
-2.342360570687485e-05
-1.7912169069963278e-05
-1.5156450751507488e-05
-2.066788738841907e-05
-2.066788738841907e-05
-2.066788738841907e-05
-2.066788738841907e-05
-2.342360570687485e-05
-2.342360570687485e-05
-2.342360570687485e-05
-2.6179324025330647e-05
-2.6179324025330647e-05
-2.8935042343786426e-05
-2.8935042343786426e-05
-3.169076066224221e-05
-3.4446478980697995e-05
-3.4446478980697995e-05
-3.4446478980697995e-05
-3.4446478980697995e-05
-3.4446478980697995e-05
-3.4446478980697995e-05
-3.720219729915378e-05
-3.720219729915378e-05
-3.995791561760957e-05
-3.995791561760957e-05
-3.720219729915378e-05
-3.995791561760957e-05
-4.2713633936065354e-05
-4.5469352254521147e-05
-5.098078889143272e-05
-5.098078889143272e-05
-4.8225070572976926e-05
-4.8225070572976926e-05
-5.098078889143272e-05
-5.3736507209888505e-05
-5.3736507209888505e-05
-4.8225070572976926e-05
-3.4446478980697995e-05
-3.169076066224221e-05
-3.995791561760957e-05
-4.5469352254521147e-05
-3.995791561760957e-05
-4.8225070572976926e-05
-6.200366216525588e-05
-6.475938048371164e-05
-6.200366216525588e-05
-5.9247943846800084e-05
-5.9247943846800084e-05
-5.6492225528344285e-05
-5.6492225528344285e-05
-5.6492225528344285e-05
-5.3736507209888505e-05
-5.6492225528344285e-05
-5.9247943846800084e-05
-5.9247943846800084e-05
-5.6492225528344285e-05
-5.6492225528344285e-05
-5.6492225528344285e-05
-5.9247943846800084e-05
-5.9247943846800084e-05
-5.9247943846800084e-05
-5.6492225528344285e-05
-5.6492225528344285e-05
-5.6492225528344285e-05
-5.6492225528344285e-05
-5.6492225528344285e-05
-5.3736507209888505e-05
-5.3736507209888505e-05
-5.3736507209888505e-05
-5.6492225528344285e-05
-5.6492225528344285e-05
-5.3736507209888505e-05
-5.098078889143272e-05
-5.098078889143272e-05
-5.3736507209888505e-05
-5.6492225528344285e-05
-5.6492225528344285e-05
-5.3736507209888505e-05
-5.3736507209888505e-05
-5.3736507209888505e-05
-5.6492225528344285e-05
-5.6492225528344285e-05
-4.8225070572976926e-05
-3.4446478980697995e-05
-4.5469352254521147e-05
-5.6492225528344285e-05
-5.098078889143272e-05
-3.720219729915378e-05
-3.720219729915378e-05
-5.098078889143272e-05
-5.9247943846800084e-05
-5.9247943846800084e-05
-5.9247943846800084e-05
-5.9247943846800084e-05
-5.6492225528344285e-05
-5.3736507209888505e-05
-5.3736507209888505e-05
-5.098078889143272e-05
-5.098078889143272e-05
-5.3736507209888505e-05
-5.6492225528344285e-05
-4.8225070572976926e-05
-3.995791561760957e-05
-3.720219729915378e-05
-3.169076066224221e-05
-2.8935042343786426e-05
-2.342360570687485e-05
-1.7912169069963278e-05
-1.5156450751507488e-05
-6.889295796140132e-06
9.64501411459459e-06
3.169076066224089e-05
4.546935225451981e-05
4.546935225451981e-05
2.6179324025329308e-05
6.8892957961388014e-06
-4.133577477684346e-06
-9.64501411459592e-06
-1.240073243305171e-05
-1.5156450751507488e-05
-1.7912169069963278e-05
-2.066788738841907e-05
-2.8935042343786426e-05
-4.2713633936065354e-05
-5.6492225528344285e-05
-6.475938048371164e-05
-6.751509880216745e-05
-6.751509880216745e-05
-6.751509880216745e-05
-6.751509880216745e-05
-6.751509880216745e-05
-6.751509880216745e-05
-6.751509880216745e-05
-6.475938048371164e-05
-6.200366216525588e-05
-6.200366216525588e-05
-5.9247943846800084e-05
-5.9247943846800084e-05
-6.200366216525588e-05
-6.200366216525588e-05
-5.9247943846800084e-05
-5.098078889143272e-05
-1.7912169069963278e-05
6.475938048371032e-05
0.00017498811322194178
0.0002824611276417174
0.00042575848020141833
0.0006214144808117793
0.0004781171282520784
0.00011436231021591448
-0.00027143825436789566
-0.0006214144808117806
-0.0008694291294728014
-0.0009741464255741213
-0.0009245434958419172
-0.0007592003967345699
-0.0005525215228503861
-0.00037339983215075977
-0.00021632388799877996
-9.507228198672531e-05
-2.342360570687485e-05
4.133577477683014e-06
1.3778591592272275e-06
-1.377859159228559e-06
4.133577477683014e-06
9.64501411459459e-06
1.2400732433050376e-05
2.066788738841773e-05
3.9957915617608246e-05
4.82250705729756e-05
3.720219729915245e-05
2.8935042343785094e-05
4.271363393606403e-05
4.82250705729756e-05
3.720219729915245e-05
3.720219729915245e-05
3.720219729915245e-05
3.9957915617608246e-05
4.82250705729756e-05
5.373650720988717e-05
5.9247943846798756e-05
5.9247943846798756e-05
6.200366216525454e-05
6.475938048371032e-05
7.02708171206219e-05
6.751509880216611e-05
6.751509880216611e-05
7.02708171206219e-05
7.578225375753347e-05
8.129369039444505e-05
8.404940871290084e-05
8.404940871290084e-05
8.956084534981241e-05
9.23165636682682e-05
9.507228198672396e-05
9.782800030517979e-05
0.00010058371862363556
0.00010333943694209132
0.00010885087357900291
0.00011436231021591448
0.00012262946517128183
0.00012814090180819342
0.00013089662012664922
0.00013365233844510492
0.00013916377508201656
0.00014467521171892812
0.00015294236667429551
0.00015845380331120705
0.00016672095826657444
0.00017498811322194178
0.0001832552681773092
0.00018876670481422076
0.00019152242313267648
0.0002218353246356902
0.00023561391622796914
0.00023285819790951333
0.00022459104295414594
0.0002218353246356902
0.00022459104295414594
0.00023285819790951333
0.00024663678950179223
0.00024663678950179223
0.00022734676127260172
0.00021632388799877858
0.00021632388799877858
0.00020805673304341124
0.00020254529640649968
0.00019427814145113231
0.00018601098649576498
0.00018049954985885336
0.000172232394903486
0.00015845380331120705
0.00014467521171892812
0.00013089662012664922
0.00011711802853437029
0.00010609515526054714
8.956084534981241e-05
7.30265354390777e-05
5.649222552834297e-05
4.271363393606403e-05
2.8935042343785094e-05
1.7912169069961946e-05
6.8892957961388014e-06
-1.377859159228559e-06
-6.889295796140132e-06
-9.64501411459592e-06
-1.5156450751507488e-05
-2.342360570687485e-05
-2.342360570687485e-05
-2.066788738841907e-05
-2.342360570687485e-05
-2.6179324025330647e-05
-2.6179324025330647e-05
-2.6179324025330647e-05
-2.6179324025330647e-05
-2.6179324025330647e-05
-2.342360570687485e-05
-1.240073243305171e-05
-4.133577477684346e-06
-4.133577477684346e-06
-1.5156450751507488e-05
-2.6179324025330647e-05
-2.342360570687485e-05
-2.342360570687485e-05
-2.066788738841907e-05
-1.5156450751507488e-05
-9.64501411459592e-06
-9.64501411459592e-06
-1.240073243305171e-05
-9.64501411459592e-06
-4.133577477684346e-06
-4.133577477684346e-06
-9.64501411459592e-06
-9.64501411459592e-06
-6.889295796140132e-06
-1.377859159228559e-06
-1.377859159228559e-06
-1.377859159228559e-06
-1.377859159228559e-06
1.2400732433050376e-05
1.5156450751506162e-05
1.2400732433050376e-05
4.133577477683014e-06
-1.377859159228559e-06
-6.889295796140132e-06
-1.377859159228559e-06
-1.377859159228559e-06
-1.5156450751507488e-05
-2.066788738841907e-05
-2.066788738841907e-05
-1.240073243305171e-05
-4.133577477684346e-06
-4.133577477684346e-06
-1.5156450751507488e-05
-2.066788738841907e-05
-2.066788738841907e-05
-2.066788738841907e-05
-1.5156450751507488e-05
-9.64501411459592e-06
-1.5156450751507488e-05
-2.6179324025330647e-05
-2.8935042343786426e-05
-2.342360570687485e-05
-2.6179324025330647e-05
-2.6179324025330647e-05
-2.066788738841907e-05
-2.066788738841907e-05
-2.342360570687485e-05
-2.342360570687485e-05
-2.342360570687485e-05
-2.342360570687485e-05
-2.342360570687485e-05
-2.6179324025330647e-05
-2.6179324025330647e-05
-2.8935042343786426e-05
-2.8935042343786426e-05
-2.6179324025330647e-05
-2.6179324025330647e-05
-2.342360570687485e-05
-2.8935042343786426e-05
-2.6179324025330647e-05
-2.6179324025330647e-05
-2.6179324025330647e-05
-2.6179324025330647e-05
-3.169076066224221e-05
-3.4446478980697995e-05
-3.169076066224221e-05
-2.8935042343786426e-05
-2.8935042343786426e-05
-3.169076066224221e-05
-3.4446478980697995e-05
-3.169076066224221e-05
-3.169076066224221e-05
-3.169076066224221e-05
-3.4446478980697995e-05
-3.4446478980697995e-05
-3.169076066224221e-05
-2.8935042343786426e-05
-3.169076066224221e-05
-3.169076066224221e-05
-3.169076066224221e-05
-3.169076066224221e-05
-3.169076066224221e-05
-3.169076066224221e-05
-3.4446478980697995e-05
-3.995791561760957e-05
-3.4446478980697995e-05
-3.4446478980697995e-05
-3.720219729915378e-05
-3.720219729915378e-05
-3.995791561760957e-05
-3.720219729915378e-05
-3.4446478980697995e-05
-3.4446478980697995e-05
-3.720219729915378e-05
-2.8935042343786426e-05
-1.5156450751507488e-05
-1.5156450751507488e-05
-2.8935042343786426e-05
-4.2713633936065354e-05
-4.8225070572976926e-05
-4.5469352254521147e-05
-4.5469352254521147e-05
-4.5469352254521147e-05
-4.5469352254521147e-05
-4.2713633936065354e-05
-4.2713633936065354e-05
-3.720219729915378e-05
-3.720219729915378e-05
-3.720219729915378e-05
-3.720219729915378e-05
-3.720219729915378e-05
-3.4446478980697995e-05
-2.8935042343786426e-05
-2.066788738841907e-05
-1.7912169069963278e-05
-1.240073243305171e-05
-4.133577477684346e-06
-1.377859159228559e-06
4.133577477683014e-06
1.2400732433050376e-05
2.8935042343785094e-05
5.373650720988717e-05
7.02708171206219e-05
7.02708171206219e-05
5.373650720988717e-05
3.169076066224089e-05
1.7912169069961946e-05
9.64501411459459e-06
6.8892957961388014e-06
6.8892957961388014e-06
4.133577477683014e-06
-1.377859159228559e-06
-1.240073243305171e-05
-2.6179324025330647e-05
-3.720219729915378e-05
-4.8225070572976926e-05
-5.098078889143272e-05
-5.3736507209888505e-05
-5.3736507209888505e-05
-5.3736507209888505e-05
-5.6492225528344285e-05
-6.200366216525588e-05
-6.475938048371164e-05
-6.475938048371164e-05
-6.475938048371164e-05
-6.751509880216745e-05
-6.751509880216745e-05
-6.475938048371164e-05
-6.200366216525588e-05
-5.098078889143272e-05
-4.5469352254521147e-05
-3.169076066224221e-05
2.066788738841773e-05
0.00011987374685282605
0.00022459104295414594
0.00034584264896620056
0.0005332314946211942
0.0006737731288624392
0.0005663001144426635
0.0002576596627756154
-0.0001171180285343716
-0.0004781171282520797
-0.0007674675516899373
-0.0009438335240711076
-0.0009741464255741213
-0.0008584062561989784
-0.0006434602273594267
-0.0004422927901121546
-0.0002824611276417188
-0.000150186648355841
-6.475938048371164e-05
-2.8935042343786426e-05
-2.066788738841907e-05
-1.7912169069963278e-05
-1.240073243305171e-05
-6.889295796140132e-06
-1.377859159228559e-06
6.8892957961388014e-06
9.64501411459459e-06
1.2400732433050376e-05
1.2400732433050376e-05
1.2400732433050376e-05
1.7912169069961946e-05
2.6179324025329308e-05
2.6179324025329308e-05
2.8935042343785094e-05
3.720219729915245e-05
5.373650720988717e-05
5.649222552834297e-05
4.546935225451981e-05
4.546935225451981e-05
4.546935225451981e-05
4.271363393606403e-05
3.720219729915245e-05
3.720219729915245e-05
4.271363393606403e-05
5.098078889143139e-05
5.649222552834297e-05
6.200366216525454e-05
6.751509880216611e-05
7.30265354390777e-05
7.30265354390777e-05
7.578225375753347e-05
8.129369039444505e-05
8.404940871290084e-05
8.68051270313566e-05
8.68051270313566e-05
9.23165636682682e-05
0.00010058371862363556
0.00010333943694209132
0.00011160659189745871
0.00011711802853437029
0.00011987374685282605
0.0001253851834897376
0.00013365233844510492
0.00013640805676356078
0.00013916377508201656
0.00014467521171892812
0.00015294236667429551
0.00016120952162966288
0.00016672095826657444
0.000172232394903486
0.00018049954985885336
0.00019152242313267648
0.0001970338597695881
0.00020254529640649968
0.00020254529640649968
0.00020530101472495543
0.00020805673304341124
0.00020805673304341124
0.00020805673304341124
0.00020530101472495543
0.00020254529640649968
0.00019978957808804387
0.00019978957808804387
0.0001970338597695881
0.00018876670481422076
0.00018049954985885336
0.00017498811322194178
0.00016672095826657444
0.00015845380331120705
0.00014743093003738393
0.00013640805676356078
0.0001253851834897376
0.00011160659189745871
9.782800030517979e-05
8.404940871290084e-05
7.02708171206219e-05
6.475938048371032e-05
5.373650720988717e-05
4.271363393606403e-05
2.8935042343785094e-05
1.2400732433050376e-05
4.133577477683014e-06
1.3778591592272275e-06
-4.133577477684346e-06
-9.64501411459592e-06
-1.5156450751507488e-05
-1.5156450751507488e-05
-1.5156450751507488e-05
-1.7912169069963278e-05
-1.7912169069963278e-05
-1.7912169069963278e-05
-1.7912169069963278e-05
-1.5156450751507488e-05
-1.240073243305171e-05
-1.240073243305171e-05
-1.5156450751507488e-05
-1.240073243305171e-05
-1.240073243305171e-05
-1.5156450751507488e-05
-1.5156450751507488e-05
-9.64501411459592e-06
-6.889295796140132e-06
-6.889295796140132e-06
-9.64501411459592e-06
-6.889295796140132e-06
-9.64501411459592e-06
-6.889295796140132e-06
-4.133577477684346e-06
-4.133577477684346e-06
-6.889295796140132e-06
-6.889295796140132e-06
-9.64501411459592e-06
-6.889295796140132e-06
-4.133577477684346e-06
-6.889295796140132e-06
-9.64501411459592e-06
-9.64501411459592e-06
-6.889295796140132e-06
-6.889295796140132e-06
-6.889295796140132e-06
-1.240073243305171e-05
-1.240073243305171e-05
-1.240073243305171e-05
-1.240073243305171e-05
-1.240073243305171e-05
-1.7912169069963278e-05
-2.066788738841907e-05
-1.5156450751507488e-05
-1.7912169069963278e-05
-1.7912169069963278e-05
-2.066788738841907e-05
-2.066788738841907e-05
-2.066788738841907e-05
-2.066788738841907e-05
-2.342360570687485e-05
-2.8935042343786426e-05
-2.8935042343786426e-05
-2.6179324025330647e-05
-2.6179324025330647e-05
-2.6179324025330647e-05
-2.6179324025330647e-05
-3.169076066224221e-05
-3.169076066224221e-05
-2.8935042343786426e-05
-2.8935042343786426e-05
-3.169076066224221e-05
-3.169076066224221e-05
-3.169076066224221e-05
-3.169076066224221e-05
-2.8935042343786426e-05
-2.8935042343786426e-05
-3.169076066224221e-05
-3.169076066224221e-05
-2.8935042343786426e-05
-3.169076066224221e-05
-3.4446478980697995e-05
-3.4446478980697995e-05
-3.4446478980697995e-05
-3.169076066224221e-05
-3.169076066224221e-05
-3.169076066224221e-05
-3.4446478980697995e-05
-3.720219729915378e-05
-3.4446478980697995e-05
-3.169076066224221e-05
-3.169076066224221e-05
-3.169076066224221e-05
-3.169076066224221e-05
-2.8935042343786426e-05
-1.7912169069963278e-05
-6.889295796140132e-06
-6.889295796140132e-06
-3.169076066224221e-05
-3.169076066224221e-05
-3.4446478980697995e-05
-3.4446478980697995e-05
-3.4446478980697995e-05
-2.342360570687485e-05
-9.64501411459592e-06
-1.7912169069963278e-05
-3.169076066224221e-05
-4.2713633936065354e-05
-4.2713633936065354e-05
-3.995791561760957e-05
-3.720219729915378e-05
-3.169076066224221e-05
-3.169076066224221e-05
-3.169076066224221e-05
-3.169076066224221e-05
-3.169076066224221e-05
-3.169076066224221e-05
-3.169076066224221e-05
-3.169076066224221e-05
-2.8935042343786426e-05
-2.8935042343786426e-05
-2.8935042343786426e-05
-2.8935042343786426e-05
-3.169076066224221e-05
-3.169076066224221e-05
-2.8935042343786426e-05
-2.8935042343786426e-05
-2.8935042343786426e-05
-2.6179324025330647e-05
-2.342360570687485e-05
-2.066788738841907e-05
-1.5156450751507488e-05
-1.240073243305171e-05
-6.889295796140132e-06
1.3778591592272275e-06
6.8892957961388014e-06
6.8892957961388014e-06
1.2400732433050376e-05
1.7912169069961946e-05
2.8935042343785094e-05
4.82250705729756e-05
6.751509880216611e-05
7.02708171206219e-05
4.82250705729756e-05
3.169076066224089e-05
2.3423605706873515e-05
2.066788738841773e-05
2.6179324025329308e-05
3.444647898069667e-05
2.8935042343785094e-05
1.2400732433050376e-05
-1.377859159228559e-06
-1.5156450751507488e-05
-2.8935042343786426e-05
-3.995791561760957e-05
-4.2713633936065354e-05
-4.2713633936065354e-05
-3.995791561760957e-05
-3.995791561760957e-05
-4.2713633936065354e-05
-4.5469352254521147e-05
-4.2713633936065354e-05
-3.995791561760957e-05
-4.2713633936065354e-05
-4.2713633936065354e-05
-3.995791561760957e-05
-3.995791561760957e-05
-4.2713633936065354e-05
-3.995791561760957e-05
-3.169076066224221e-05
1.3778591592272275e-06
7.578225375753347e-05
0.00018049954985885336
0.00027970540932326175
0.00042024704356450677
0.0006241701991302349
0.0006930631570916297
0.0004918957198443572
0.00016672095826657444
-0.00017223239490348733
-0.0005084300297550932
-0.0007592003967345699
-0.0008776962844281688
-0.0008639176928358897
-0.0007288874952315562
-0.0005222086213473721
-0.0003430869306477461
-0.00019703385976958942
-7.57822537575348e-05
-9.64501411459592e-06
1.2400732433050376e-05
1.7912169069961946e-05
2.3423605706873515e-05
3.9957915617608246e-05
5.098078889143139e-05
5.098078889143139e-05
5.373650720988717e-05
5.649222552834297e-05
4.82250705729756e-05
3.720219729915245e-05
3.9957915617608246e-05
4.82250705729756e-05
5.649222552834297e-05
6.200366216525454e-05
5.9247943846798756e-05
6.200366216525454e-05
6.751509880216611e-05
7.30265354390777e-05
7.30265354390777e-05
7.02708171206219e-05
7.02708171206219e-05
7.578225375753347e-05
8.129369039444505e-05
8.129369039444505e-05
8.404940871290084e-05
8.404940871290084e-05
8.68051270313566e-05
8.956084534981241e-05
9.23165636682682e-05
9.507228198672396e-05
9.507228198672396e-05
9.782800030517979e-05
0.00010609515526054714
0.00011160659189745871
0.00011436231021591448
0.00011711802853437029
0.00012262946517128183
0.0001253851834897376
0.00013089662012664922
0.00013365233844510492
0.00013916377508201656
0.00014743093003738393
0.0001556980849927513
0.0001556980849927513
0.00015845380331120705
0.00016120952162966288
0.00016396523994811866
0.00017498811322194178
0.00018049954985885336
0.0001832552681773092
0.00018601098649576498
0.00019427814145113231
0.00020254529640649968
0.00020530101472495543
0.000210812451361867
0.000210812451361867
0.0002135681696803228
0.00021632388799877858
0.0002190796063172344
0.00021632388799877858
0.00020530101472495543
0.00020530101472495543
0.00020254529640649968
0.00019978957808804387
0.00019427814145113231
0.00019152242313267648
0.00019427814145113231
0.00019427814145113231
0.00018049954985885336
0.00015845380331120705
0.00013640805676356078
0.00011987374685282605
0.00010885087357900291
9.782800030517979e-05
8.68051270313566e-05
7.578225375753347e-05
6.200366216525454e-05
4.82250705729756e-05
3.9957915617608246e-05
2.8935042343785094e-05
1.7912169069961946e-05
6.8892957961388014e-06
1.3778591592272275e-06
1.3778591592272275e-06
-4.133577477684346e-06
-9.64501411459592e-06
-1.240073243305171e-05
-1.240073243305171e-05
-9.64501411459592e-06
-1.240073243305171e-05
-1.5156450751507488e-05
-1.5156450751507488e-05
-1.5156450751507488e-05
-1.240073243305171e-05
-1.240073243305171e-05
-1.5156450751507488e-05
-1.7912169069963278e-05
-1.5156450751507488e-05
-6.889295796140132e-06
-4.133577477684346e-06
-4.133577477684346e-06
1.3778591592272275e-06
1.3778591592272275e-06
4.133577477683014e-06
4.133577477683014e-06
4.133577477683014e-06
4.133577477683014e-06
6.8892957961388014e-06
9.64501411459459e-06
6.8892957961388014e-06
6.8892957961388014e-06
4.133577477683014e-06
6.8892957961388014e-06
6.8892957961388014e-06
6.8892957961388014e-06
6.8892957961388014e-06
4.133577477683014e-06
4.133577477683014e-06
4.133577477683014e-06
1.3778591592272275e-06
1.3778591592272275e-06
1.3778591592272275e-06
1.3778591592272275e-06
-1.377859159228559e-06
-4.133577477684346e-06
-4.133577477684346e-06
-4.133577477684346e-06
-1.377859159228559e-06
-1.377859159228559e-06
-4.133577477684346e-06
-4.133577477684346e-06
-6.889295796140132e-06
-9.64501411459592e-06
-1.240073243305171e-05
-1.240073243305171e-05
-1.5156450751507488e-05
-1.5156450751507488e-05
-1.240073243305171e-05
-1.240073243305171e-05
-9.64501411459592e-06
-6.889295796140132e-06
-1.377859159228559e-06
4.133577477683014e-06
-1.377859159228559e-06
-1.240073243305171e-05
-2.066788738841907e-05
-2.342360570687485e-05
-2.342360570687485e-05
-2.066788738841907e-05
-2.066788738841907e-05
-1.240073243305171e-05
-6.889295796140132e-06
-1.5156450751507488e-05
-2.8935042343786426e-05
-3.169076066224221e-05
-3.169076066224221e-05
-3.169076066224221e-05
-3.169076066224221e-05
-2.8935042343786426e-05
-2.6179324025330647e-05
-2.6179324025330647e-05
-2.6179324025330647e-05
-2.6179324025330647e-05
-2.8935042343786426e-05
-2.6179324025330647e-05
-2.6179324025330647e-05
-2.8935042343786426e-05
-3.169076066224221e-05
-3.169076066224221e-05
-2.6179324025330647e-05
-2.342360570687485e-05
-2.6179324025330647e-05
-2.8935042343786426e-05
-2.6179324025330647e-05
-2.6179324025330647e-05
-2.6179324025330647e-05
-2.8935042343786426e-05
-3.169076066224221e-05
-2.8935042343786426e-05
-2.6179324025330647e-05
-2.6179324025330647e-05
-2.6179324025330647e-05
-2.6179324025330647e-05
-2.6179324025330647e-05
-2.342360570687485e-05
-2.066788738841907e-05
-2.066788738841907e-05
-2.342360570687485e-05
-2.342360570687485e-05
-2.342360570687485e-05
-2.342360570687485e-05
-2.6179324025330647e-05
-2.342360570687485e-05
-2.342360570687485e-05
-2.342360570687485e-05
-2.342360570687485e-05
-2.342360570687485e-05
-2.6179324025330647e-05
-2.8935042343786426e-05
-2.342360570687485e-05
-2.066788738841907e-05
-1.240073243305171e-05
-6.889295796140132e-06
-4.133577477684346e-06
4.133577477683014e-06
6.8892957961388014e-06
1.2400732433050376e-05
1.7912169069961946e-05
2.3423605706873515e-05
4.271363393606403e-05
7.02708171206219e-05
8.129369039444505e-05
7.02708171206219e-05
4.546935225451981e-05
3.169076066224089e-05
2.6179324025329308e-05
2.066788738841773e-05
1.7912169069961946e-05
1.5156450751506162e-05
1.5156450751506162e-05
1.2400732433050376e-05
1.3778591592272275e-06
-9.64501411459592e-06
-2.6179324025330647e-05
-3.4446478980697995e-05
-3.4446478980697995e-05
-3.4446478980697995e-05
-3.4446478980697995e-05
-3.720219729915378e-05
-2.6179324025330647e-05
-1.7912169069963278e-05
-2.342360570687485e-05
-3.4446478980697995e-05
-4.2713633936065354e-05
-4.5469352254521147e-05
-4.2713633936065354e-05
-3.720219729915378e-05
-3.720219729915378e-05
-3.720219729915378e-05
-1.5156450751507488e-05
3.720219729915245e-05
0.00012814090180819342
0.0002383696345464249
0.00035135408560311223
0.0005304757763027383
0.0007095974670023644
0.000637948790722514
0.0003375754940108332
-3.995791561760957e-05
-0.0003982012970168618
-0.0007068417486839102
-0.0009052534676127264
-0.0009603678339818424
-0.0008639176928358897
-0.0006599945372701616
-0.0004422927901121546
-0.0002686825360494398
-0.00012814090180819475
-3.4446478980697995e-05
4.133577477683014e-06
1.7912169069961946e-05
2.3423605706873515e-05
2.6179324025329308e-05
2.8935042343785094e-05
3.169076066224089e-05
3.9957915617608246e-05
4.271363393606403e-05
4.82250705729756e-05
5.373650720988717e-05
6.475938048371032e-05
7.30265354390777e-05
6.751509880216611e-05
5.649222552834297e-05
5.373650720988717e-05
5.373650720988717e-05
5.9247943846798756e-05
7.02708171206219e-05
8.404940871290084e-05
7.853797207598924e-05
6.475938048371032e-05
6.200366216525454e-05
6.475938048371032e-05
7.02708171206219e-05
7.578225375753347e-05
8.129369039444505e-05
8.129369039444505e-05
8.956084534981241e-05
0.00010333943694209132
0.00010609515526054714
9.782800030517979e-05
9.23165636682682e-05
9.782800030517979e-05
0.00010333943694209132
0.00010609515526054714
0.00011160659189745871
0.00011436231021591448
0.00012262946517128183
0.00012814090180819342
0.00013640805676356078
0.00013916377508201656
0.00014191949340047234
0.00014467521171892812
0.00015018664835583973
0.0001556980849927513
0.00016120952162966288
0.0001694766765850302
0.00017498811322194178
0.0001832552681773092
0.00019152242313267648
0.0001970338597695881
0.00019978957808804387
0.00020805673304341124
0.0002135681696803228
0.00021632388799877858
0.0002190796063172344
0.0002218353246356902
0.00022459104295414594
0.00023010247959105753
0.00023285819790951333
0.00023010247959105753
0.00023010247959105753
0.00022734676127260172
0.0002190796063172344
0.0002135681696803228
0.00020805673304341124
0.00020254529640649968
0.00019978957808804387
0.00020530101472495543
0.00020254529640649968
0.00018049954985885336
0.0001556980849927513
0.00013916377508201656
0.00012262946517128183
0.00010885087357900291
0.00010333943694209132
9.507228198672396e-05
7.02708171206219e-05
4.82250705729756e-05
3.720219729915245e-05
3.720219729915245e-05
2.8935042343785094e-05
9.64501411459459e-06
-4.133577477684346e-06
-6.889295796140132e-06
-9.64501411459592e-06
-9.64501411459592e-06
-4.133577477684346e-06
1.3778591592272275e-06
-9.64501411459592e-06
-2.066788738841907e-05
-2.342360570687485e-05
-2.342360570687485e-05
-1.7912169069963278e-05
-1.240073243305171e-05
-9.64501411459592e-06
-9.64501411459592e-06
-1.240073243305171e-05
-9.64501411459592e-06
-6.889295796140132e-06
-9.64501411459592e-06
-6.889295796140132e-06
-1.377859159228559e-06
1.3778591592272275e-06
1.3778591592272275e-06
1.3778591592272275e-06
-1.377859159228559e-06
-1.377859159228559e-06
-1.377859159228559e-06
1.3778591592272275e-06
4.133577477683014e-06
4.133577477683014e-06
4.133577477683014e-06
4.133577477683014e-06
6.8892957961388014e-06
6.8892957961388014e-06
1.3778591592272275e-06
-1.377859159228559e-06
-4.133577477684346e-06
-4.133577477684346e-06
-4.133577477684346e-06
-1.377859159228559e-06
6.8892957961388014e-06
1.2400732433050376e-05
6.8892957961388014e-06
-6.889295796140132e-06
-2.066788738841907e-05
-2.6179324025330647e-05
-2.6179324025330647e-05
-2.342360570687485e-05
-2.342360570687485e-05
-2.342360570687485e-05
-1.7912169069963278e-05
-6.889295796140132e-06
-9.64501411459592e-06
-2.066788738841907e-05
-2.8935042343786426e-05
-2.6179324025330647e-05
-2.8935042343786426e-05
-2.8935042343786426e-05
-2.6179324025330647e-05
-2.342360570687485e-05
-2.066788738841907e-05
-2.342360570687485e-05
-2.066788738841907e-05
-2.066788738841907e-05
-2.342360570687485e-05
-2.6179324025330647e-05
-2.6179324025330647e-05
-2.342360570687485e-05
-2.066788738841907e-05
-2.342360570687485e-05
-2.8935042343786426e-05
-2.8935042343786426e-05
-2.6179324025330647e-05
-2.342360570687485e-05
-2.066788738841907e-05
-2.342360570687485e-05
-2.342360570687485e-05
-2.066788738841907e-05
-2.342360570687485e-05
-2.342360570687485e-05
-2.6179324025330647e-05
-2.8935042343786426e-05
-2.6179324025330647e-05
-2.8935042343786426e-05
-2.6179324025330647e-05
-2.6179324025330647e-05
-3.169076066224221e-05
-3.4446478980697995e-05
-3.169076066224221e-05
-2.8935042343786426e-05
-3.4446478980697995e-05
-3.720219729915378e-05
-3.720219729915378e-05
-3.4446478980697995e-05
-3.4446478980697995e-05
-3.4446478980697995e-05
-3.720219729915378e-05
-3.720219729915378e-05
-3.720219729915378e-05
-3.720219729915378e-05
-3.720219729915378e-05
-3.720219729915378e-05
-3.720219729915378e-05
-3.4446478980697995e-05
-3.4446478980697995e-05
-3.4446478980697995e-05
-3.4446478980697995e-05
-3.720219729915378e-05
-3.720219729915378e-05
-3.4446478980697995e-05
-3.4446478980697995e-05
-3.4446478980697995e-05
-3.4446478980697995e-05
-3.4446478980697995e-05
-3.720219729915378e-05
-3.720219729915378e-05
-3.4446478980697995e-05
-3.4446478980697995e-05
-2.8935042343786426e-05
-2.342360570687485e-05
-2.066788738841907e-05
-1.7912169069963278e-05
-1.240073243305171e-05
-9.64501411459592e-06
-4.133577477684346e-06
1.3778591592272275e-06
4.133577477683014e-06
2.3423605706873515e-05
4.546935225451981e-05
6.475938048371032e-05
6.200366216525454e-05
3.720219729915245e-05
1.7912169069961946e-05
1.3778591592272275e-06
-6.889295796140132e-06
-6.889295796140132e-06
-6.889295796140132e-06
-6.889295796140132e-06
-9.64501411459592e-06
-1.5156450751507488e-05
-1.5156450751507488e-05
-1.240073243305171e-05
-2.066788738841907e-05
-3.720219729915378e-05
-5.6492225528344285e-05
-6.475938048371164e-05
-5.6492225528344285e-05
-4.8225070572976926e-05
-5.098078889143272e-05
-6.200366216525588e-05
-6.475938048371164e-05
-6.200366216525588e-05
-6.475938048371164e-05
-6.200366216525588e-05
-5.9247943846800084e-05
-5.6492225528344285e-05
-5.9247943846800084e-05
-4.5469352254521147e-05
-4.133577477684346e-06
8.68051270313566e-05
0.00020254529640649968
0.0003072625925078196
0.0004670942549782553
0.0006599945372701603
0.0006820402838178067
0.0004367813534752416
6.200366216525454e-05
-0.0003127740291447324
-0.0006434602273594267
-0.000874940566109713
-0.0009658792706187539
-0.0009052534676127264
-0.0007233760585946446
-0.0005084300297550932
-0.0003320640573739229
-0.00018325526817731047
-7.57822537575348e-05
-2.8935042343786426e-05
-1.5156450751507488e-05
-1.240073243305171e-05
-4.133577477684346e-06
4.133577477683014e-06
6.8892957961388014e-06
9.64501411459459e-06
1.2400732433050376e-05
1.7912169069961946e-05
2.066788738841773e-05
2.3423605706873515e-05
2.6179324025329308e-05
2.6179324025329308e-05
2.8935042343785094e-05
3.169076066224089e-05
3.169076066224089e-05
3.169076066224089e-05
3.444647898069667e-05
4.271363393606403e-05
4.82250705729756e-05
5.098078889143139e-05
4.82250705729756e-05
5.098078889143139e-05
5.649222552834297e-05
5.9247943846798756e-05
7.30265354390777e-05
8.956084534981241e-05
8.68051270313566e-05
7.578225375753347e-05
7.30265354390777e-05
7.30265354390777e-05
7.578225375753347e-05
8.129369039444505e-05
8.956084534981241e-05
9.23165636682682e-05
9.23165636682682e-05
9.782800030517979e-05
0.00010333943694209132
0.00010885087357900291
0.00011711802853437029
0.00011987374685282605
0.00012262946517128183
0.00012814090180819342
0.00016396523994811866
0.0001694766765850302
0.0001694766765850302
0.000172232394903486
0.00016672095826657444
0.00016396523994811866
0.000172232394903486
0.00017774383154039756
0.0001832552681773092
0.00019152242313267648
0.0001970338597695881
0.00020254529640649968
0.00020805673304341124
0.000210812451361867
0.0002135681696803228
0.0002190796063172344
0.0002218353246356902
0.0002190796063172344
0.000210812451361867
0.00020530101472495543
0.00020530101472495543
0.00020254529640649968
0.00019427814145113231
0.00018601098649576498
0.00018049954985885336
0.000172232394903486
0.00016396523994811866
0.0001556980849927513
0.00014467521171892812
0.0001253851834897376
0.00011436231021591448
0.00010058371862363556
8.68051270313566e-05
7.30265354390777e-05
5.9247943846798756e-05
4.546935225451981e-05
3.444647898069667e-05
2.066788738841773e-05
1.2400732433050376e-05
6.8892957961388014e-06
-1.377859159228559e-06
-6.889295796140132e-06
-9.64501411459592e-06
-1.377859159228559e-06
-1.377859159228559e-06
-1.5156450751507488e-05
-2.342360570687485e-05
-2.6179324025330647e-05
-2.8935042343786426e-05
-3.169076066224221e-05
-2.8935042343786426e-05
-2.8935042343786426e-05
-2.6179324025330647e-05
-2.6179324025330647e-05
-2.342360570687485e-05
-1.240073243305171e-05
-1.377859159228559e-06
-4.133577477684346e-06
-1.240073243305171e-05
-2.066788738841907e-05
-2.6179324025330647e-05
-2.6179324025330647e-05
-2.342360570687485e-05
-2.066788738841907e-05
-2.066788738841907e-05
-6.889295796140132e-06
-1.377859159228559e-06
-6.889295796140132e-06
-6.889295796140132e-06
-9.64501411459592e-06
-2.066788738841907e-05
-2.6179324025330647e-05
-2.6179324025330647e-05
-2.342360570687485e-05
-2.342360570687485e-05
-2.6179324025330647e-05
-2.342360570687485e-05
-2.066788738841907e-05
-2.066788738841907e-05
-2.066788738841907e-05
-2.066788738841907e-05
-2.6179324025330647e-05
-2.342360570687485e-05
-2.6179324025330647e-05
-2.8935042343786426e-05
-3.4446478980697995e-05
-3.4446478980697995e-05
-3.169076066224221e-05
-2.8935042343786426e-05
-3.4446478980697995e-05
-3.720219729915378e-05
-3.720219729915378e-05
-3.169076066224221e-05
-3.169076066224221e-05
-3.720219729915378e-05
-4.2713633936065354e-05
-3.995791561760957e-05
-3.720219729915378e-05
-3.995791561760957e-05
-4.2713633936065354e-05
-4.5469352254521147e-05
-4.5469352254521147e-05
-4.5469352254521147e-05
-4.5469352254521147e-05
-3.995791561760957e-05
-3.169076066224221e-05
-2.066788738841907e-05
-2.066788738841907e-05
-3.4446478980697995e-05
-4.5469352254521147e-05
-5.6492225528344285e-05
-5.9247943846800084e-05
-5.9247943846800084e-05
-5.6492225528344285e-05
-5.3736507209888505e-05
-5.098078889143272e-05
-5.098078889143272e-05
-5.098078889143272e-05
-4.8225070572976926e-05
-4.5469352254521147e-05
-4.5469352254521147e-05
-4.8225070572976926e-05
-4.8225070572976926e-05
-4.5469352254521147e-05
-4.5469352254521147e-05
-4.5469352254521147e-05
-4.5469352254521147e-05
-4.5469352254521147e-05
-4.2713633936065354e-05
-4.2713633936065354e-05
-3.995791561760957e-05
-4.2713633936065354e-05
-4.5469352254521147e-05
-4.2713633936065354e-05
-4.5469352254521147e-05
-4.8225070572976926e-05
-4.8225070572976926e-05
-4.2713633936065354e-05
-4.2713633936065354e-05
-4.5469352254521147e-05
-4.5469352254521147e-05
-4.5469352254521147e-05
-4.5469352254521147e-05
-4.5469352254521147e-05
-4.5469352254521147e-05
-4.8225070572976926e-05
-4.8225070572976926e-05
-4.5469352254521147e-05
-4.2713633936065354e-05
-4.2713633936065354e-05
-4.5469352254521147e-05
-3.720219729915378e-05
-2.342360570687485e-05
-2.066788738841907e-05
-3.169076066224221e-05
-3.4446478980697995e-05
-2.8935042343786426e-05
-2.8935042343786426e-05
-3.4446478980697995e-05
-3.169076066224221e-05
-1.240073243305171e-05
-4.133577477684346e-06
-6.889295796140132e-06
-9.64501411459592e-06
9.64501411459459e-06
3.169076066224089e-05
3.9957915617608246e-05
3.720219729915245e-05
2.3423605706873515e-05
9.64501411459459e-06
-1.377859159228559e-06
-9.64501411459592e-06
-1.5156450751507488e-05
-1.5156450751507488e-05
-9.64501411459592e-06
-1.240073243305171e-05
-2.342360570687485e-05
-3.4446478980697995e-05
-3.995791561760957e-05
-5.098078889143272e-05
-5.3736507209888505e-05
-5.6492225528344285e-05
-6.200366216525588e-05
-6.200366216525588e-05
-6.200366216525588e-05
-5.9247943846800084e-05
-6.200366216525588e-05
-6.475938048371164e-05
-6.475938048371164e-05
-6.200366216525588e-05
-6.200366216525588e-05
-5.9247943846800084e-05
-6.200366216525588e-05
-6.475938048371164e-05
-6.200366216525588e-05
-4.8225070572976926e-05
8.129369039444505e-05
0.00018601098649576498
0.0002934840009155406
0.0004478042267490647
0.0006407045090409697
0.0006572388189517045
0.00041749132524605104
7.02708171206219e-05
-0.0002824611276417188
-0.000615903044174869
-0.0008418719462882435
-0.0009300549324788287
-0.0008721848477912571
-0.0006985745937285427
-0.0004974071564812702
-0.0003293083390554673
-0.00018876670481422206
-7.85379720759906e-05
-2.342360570687485e-05
-9.64501411459592e-06
-9.64501411459592e-06
-6.889295796140132e-06
-1.377859159228559e-06
4.133577477683014e-06
6.8892957961388014e-06
9.64501411459459e-06
1.7912169069961946e-05
2.066788738841773e-05
2.066788738841773e-05
2.6179324025329308e-05
2.8935042343785094e-05
3.444647898069667e-05
3.444647898069667e-05
3.444647898069667e-05
3.720219729915245e-05
3.9957915617608246e-05
3.9957915617608246e-05
4.271363393606403e-05
4.546935225451981e-05
4.82250705729756e-05
5.098078889143139e-05
5.373650720988717e-05
5.373650720988717e-05
5.649222552834297e-05
6.200366216525454e-05
6.200366216525454e-05
6.200366216525454e-05
6.475938048371032e-05
6.751509880216611e-05
