0.00014467521171892812
0.0001556980849927513
0.00016396523994811866
0.00016396523994811866
0.00013916377508201656
0.00010885087357900291
0.0001253851834897376
0.00014467521171892812
0.0001556980849927513
0.00016120952162966288
0.00015294236667429551
0.0001253851834897376
0.00013089662012664922
0.00014743093003738393
0.000172232394903486
0.00016672095826657444
0.00016396523994811866
0.0001556980849927513
0.00013916377508201656
0.00012814090180819342
0.00016120952162966288
0.00016396523994811866
0.00013640805676356078
0.00010333943694209132
0.00011711802853437029
0.0001556980849927513
0.00016396523994811866
0.00016396523994811866
0.0001253851834897376
0.0001253851834897376
0.00011987374685282605
0.0001556980849927513
0.00016672095826657444
0.00017774383154039756
0.0001556980849927513
0.00013640805676356078
0.00015294236667429551
0.00020254529640649968
0.00019427814145113231
0.00020254529640649968
0.0002218353246356902
0.00023285819790951333
0.00023285819790951333
0.0002383696345464249
0.00023285819790951333
0.00022734676127260172
0.00020254529640649968
0.000210812451361867
0.00020254529640649968
0.00018876670481422076
0.00017498811322194178
0.00016672095826657444
0.00014743093003738393
0.00017498811322194178
0.00017498811322194178
0.00016672095826657444
0.0001970338597695881
0.00017498811322194178
0.00015294236667429551
0.0001556980849927513
0.00016120952162966288
0.00014191949340047234
0.00010609515526054714
0.00011987374685282605
0.00013089662012664922
0.00013365233844510492
0.00013365233844510492
0.00012814090180819342
8.956084534981241e-05
0.00010333943694209132
0.00015018664835583973
0.0001694766765850302
0.00016120952162966288
0.00014467521171892812
0.00013365233844510492
0.00011160659189745871
0.00011711802853437029
0.00013089662012664922
0.00013365233844510492
0.00013365233844510492
0.00014743093003738393
0.00016396523994811866
0.00016120952162966288
0.00014467521171892812
0.00012262946517128183
0.00016120952162966288
0.00018601098649576498
0.00018601098649576498
0.0001970338597695881
0.00018601098649576498
0.00017498811322194178
0.00019152242313267648
0.00019978957808804387
0.00019978957808804387
0.00013640805676356078
0.00012814090180819342
0.00015294236667429551
0.00013365233844510492
0.00014191949340047234
0.00013365233844510492
0.00012814090180819342
0.0001253851834897376
0.00014191949340047234
8.956084534981241e-05
5.9247943846798756e-05
8.68051270313566e-05
9.782800030517979e-05
9.23165636682682e-05
8.404940871290084e-05
9.782800030517979e-05
0.00010885087357900291
9.782800030517979e-05
9.507228198672396e-05
7.02708171206219e-05
5.9247943846798756e-05
-1.5156450751507488e-05
-0.0001171180285343716
-0.000150186648355841
-0.00010058371862363688
4.546935225451981e-05
0.0004422927901121532
0.001089886594949263
0.001833930540932325
0.0024208985427634083
0.002633088853284504
0.0023988527962157612
0.0019110906538490876
0.0013489241168841066
0.000767467551689936
0.00042851419851987416
0.0002824611276417174
0.00018049954985885336
8.956084534981241e-05
8.129369039444505e-05
7.578225375753347e-05
5.373650720988717e-05
3.720219729915245e-05
4.546935225451981e-05
3.444647898069667e-05
2.066788738841773e-05
2.6179324025329308e-05
3.9957915617608246e-05
2.3423605706873515e-05
-9.64501411459592e-06
1.7912169069961946e-05
3.720219729915245e-05
1.7912169069961946e-05
1.5156450751506162e-05
2.6179324025329308e-05
1.7912169069961946e-05
5.373650720988717e-05
9.23165636682682e-05
7.02708171206219e-05
3.9957915617608246e-05
3.444647898069667e-05
3.444647898069667e-05
6.475938048371032e-05
5.649222552834297e-05
2.3423605706873515e-05
3.169076066224089e-05
2.066788738841773e-05
9.64501411459459e-06
4.82250705729756e-05
6.751509880216611e-05
7.02708171206219e-05
8.68051270313566e-05
7.578225375753347e-05
5.649222552834297e-05
6.200366216525454e-05
4.271363393606403e-05
9.64501411459459e-06
5.649222552834297e-05
7.30265354390777e-05
5.9247943846798756e-05
6.475938048371032e-05
9.507228198672396e-05
8.404940871290084e-05
7.30265354390777e-05
9.507228198672396e-05
8.404940871290084e-05
5.098078889143139e-05
4.82250705729756e-05
5.373650720988717e-05
6.475938048371032e-05
9.507228198672396e-05
0.00013365233844510492
0.00011436231021591448
0.00011711802853437029
8.956084534981241e-05
4.271363393606403e-05
8.404940871290084e-05
0.00011436231021591448
0.00012262946517128183
0.0001253851834897376
9.507228198672396e-05
0.00013089662012664922
0.00015018664835583973
0.0001832552681773092
0.00019152242313267648
0.00018601098649576498
0.00019978957808804387
0.00017774383154039756
0.00014191949340047234
0.00012814090180819342
0.00016672095826657444
0.0001556980849927513
0.00014743093003738393
9.23165636682682e-05
7.30265354390777e-05
0.00011987374685282605
0.00015018664835583973
0.0001694766765850302
0.00016672095826657444
0.0001694766765850302
0.00015294236667429551
0.00013365233844510492
0.00011436231021591448
9.507228198672396e-05
6.751509880216611e-05
4.82250705729756e-05
5.373650720988717e-05
8.404940871290084e-05
6.751509880216611e-05
5.9247943846798756e-05
6.200366216525454e-05
7.853797207598924e-05
4.82250705729756e-05
3.720219729915245e-05
5.098078889143139e-05
8.68051270313566e-05
9.23165636682682e-05
6.751509880216611e-05
6.200366216525454e-05
7.853797207598924e-05
7.02708171206219e-05
7.578225375753347e-05
8.129369039444505e-05
6.751509880216611e-05
7.578225375753347e-05
7.02708171206219e-05
7.30265354390777e-05
6.751509880216611e-05
7.30265354390777e-05
8.129369039444505e-05
0.00013365233844510492
0.0001253851834897376
9.507228198672396e-05
6.751509880216611e-05
5.098078889143139e-05
4.271363393606403e-05
4.271363393606403e-05
7.30265354390777e-05
7.853797207598924e-05
6.8892957961388014e-06
4.133577477683014e-06
-2.8935042343786426e-05
-3.169076066224221e-05
-2.342360570687485e-05
-4.133577477684346e-06
-1.377859159228559e-06
-1.377859159228559e-06
2.3423605706873515e-05
4.133577477683014e-06
2.066788738841773e-05
2.6179324025329308e-05
-1.377859159228559e-06
-4.133577477684346e-06
-9.64501411459592e-06
-9.231656366826955e-05
-0.000150186648355841
-0.00016672095826657574
-0.00012814090180819475
-4.2713633936065354e-05
0.00027143825436789435
0.0008749405661097116
0.0015859158922713046
0.002172883894102387
0.0024098756694895846
0.002192173922331578
0.0017292132448310056
0.0011946038910505827
0.0006462159456778814
0.00032379690241855427
0.00019427814145113231
0.00011987374685282605
7.02708171206219e-05
2.3423605706873515e-05
-1.7912169069963278e-05
-2.8935042343786426e-05
-0.00010058371862363688
-9.507228198672531e-05
-3.4446478980697995e-05
-5.098078889143272e-05
-6.200366216525588e-05
-4.8225070572976926e-05
-6.475938048371164e-05
-0.00010609515526054846
-8.956084534981374e-05
-5.3736507209888505e-05
-7.57822537575348e-05
-6.200366216525588e-05
-5.9247943846800084e-05
-5.6492225528344285e-05
-5.9247943846800084e-05
-3.720219729915378e-05
-1.5156450751507488e-05
-2.342360570687485e-05
-5.3736507209888505e-05
-6.475938048371164e-05
-5.3736507209888505e-05
-3.720219729915378e-05
-5.3736507209888505e-05
-7.85379720759906e-05
-6.751509880216745e-05
-6.200366216525588e-05
-5.3736507209888505e-05
-5.9247943846800084e-05
-6.751509880216745e-05
-6.200366216525588e-05
-3.720219729915378e-05
-2.342360570687485e-05
-2.066788738841907e-05
4.133577477683014e-06
1.5156450751506162e-05
-3.720219729915378e-05
-6.475938048371164e-05
-7.57822537575348e-05
-0.0001198737468528274
-0.0001198737468528274
-0.00011160659189746003
-7.302653543907902e-05
-1.5156450751507488e-05
-9.64501411459592e-06
-6.200366216525588e-05
-4.5469352254521147e-05
-1.240073243305171e-05
-4.133577477684346e-06
-3.169076066224221e-05
-2.8935042343786426e-05
-1.7912169069963278e-05
6.8892957961388014e-06
3.9957915617608246e-05
4.82250705729756e-05
8.129369039444505e-05
9.507228198672396e-05
7.853797207598924e-05
0.00011711802853437029
0.00013640805676356078
0.00016396523994811866
0.00017498811322194178
0.00013089662012664922
9.782800030517979e-05
8.68051270313566e-05
5.9247943846798756e-05
2.8935042343785094e-05
3.444647898069667e-05
6.751509880216611e-05
6.200366216525454e-05
4.546935225451981e-05
3.169076066224089e-05
-2.8935042343786426e-05
-6.751509880216745e-05
-4.2713633936065354e-05
-4.133577477684346e-06
-4.133577477684346e-06
-1.5156450751507488e-05
-9.64501411459592e-06
-1.240073243305171e-05
-3.995791561760957e-05
-1.240073243305171e-05
2.066788738841773e-05
2.066788738841773e-05
1.7912169069961946e-05
-2.066788738841907e-05
-2.342360570687485e-05
-6.889295796140132e-06
-1.7912169069963278e-05
-5.3736507209888505e-05
-4.2713633936065354e-05
-6.475938048371164e-05
-0.00010333943694209268
-0.00010609515526054846
-6.475938048371164e-05
4.133577477683014e-06
6.8892957961388014e-06
-1.7912169069963278e-05
-4.8225070572976926e-05
-8.680512703135793e-05
-7.57822537575348e-05
-3.169076066224221e-05
-4.133577477684346e-06
-1.377859159228559e-06
-4.133577477684346e-06
-3.4446478980697995e-05
-4.8225070572976926e-05
-4.5469352254521147e-05
-3.995791561760957e-05
-5.098078889143272e-05
-4.8225070572976926e-05
-7.027081712062322e-05
-7.85379720759906e-05
-5.6492225528344285e-05
-5.6492225528344285e-05
-1.7912169069963278e-05
-2.066788738841907e-05
-5.9247943846800084e-05
-0.00010333943694209268
-0.00014191949340047367
-0.00014467521171892948
-0.0001584538033112084
-0.0001391637750820179
-9.78280003051811e-05
-0.00014191949340047367
-0.0002080567330434125
-0.00016947667658503157
-9.507228198672531e-05
-4.2713633936065354e-05
-3.720219729915378e-05
-9.507228198672531e-05
-0.000150186648355841
-0.00019152242313267784
-0.0002686825360494398
-0.00030726259250782084
-0.00024112535286488197
-8.956084534981374e-05
0.0002769496910048059
0.0008942305943389022
0.0016107173571374067
0.00211225809109636
0.0021839067673762105
0.0012882983138780798
0.0006958188754100854
0.00020530101472495543
2.3423605706873515e-05
-4.2713633936065354e-05
-0.00010609515526054846
-0.00012814090180819475
-0.00014191949340047367
-0.00014743093003738526
-0.0001391637750820179
-0.00018049954985885472
-0.0002108124513618684
-0.00021632388799877996
-0.0002190796063172357
-0.00021632388799877996
-0.00025765966277561676
-0.00029072828259708617
-0.00030175115587090934
-0.00030726259250782084
-0.0003045068741893651
-0.0002989954375524536
-0.00026592681773098404
-0.0002549039444571609
-0.00027143825436789566
-0.00026592681773098404
-0.0003155297474631883
-0.0003320640573739229
-0.0002604153810940725
-0.00020530101472495681
-0.00022459104295414727
-0.00026592681773098404
-0.0003210411841000998
-0.000370644113832304
-0.0003568655222400251
-0.00032379690241855563
-0.0002631710994125282
-0.00029072828259708617
-0.0003430869306477461
-0.0003293083390554673
-0.00027694969100480727
-0.0002604153810940725
-0.0003375754940108345
-0.00037339983215075977
-0.00036237695887693665
-0.00032379690241855563
-0.0002824611276417188
-0.00028797256427863044
-0.0003210411841000998
-0.0003596212405584808
-0.0003871784237430386
-0.00037339983215075977
-0.0003458426489662019
-0.0003127740291447324
-0.00029072828259708617
-0.0002989954375524536
-0.0003458426489662019
-0.00036788839551384826
-0.00029348400091554195
-0.00022459104295414727
-0.0002521482261387052
-0.00027694969100480727
-0.0002604153810940725
-0.00027143825436789566
-0.0002852168459601746
-0.00027143825436789566
-0.0002989954375524536
-0.0003320640573739229
-0.00032655262073701135
-0.00032379690241855563
-0.00027970540932326305
-0.00027970540932326305
-0.0002989954375524536
-0.0003293083390554673
-0.00035410980392156926
-0.0003596212405584808
-0.00036237695887693665
-0.0003651326771953924
-0.0003982012970168618
-0.00045055994506752175
-0.0005139414663920051
-0.0005663001144426648
-0.000577322987716488
-0.0005993687342641343
-0.0006434602273594267
-0.00065448310063325
-0.0006489716639963384
-0.0006572388189517057
-0.0006792845654993521
-0.0006737731288624405
-0.0006710174105439848
-0.000668261692225529
-0.0006765288471808962
-0.0007013303120469984
-0.0007399103685053794
-0.0007564446784161143
-0.0007536889600976582
-0.0007592003967345699
-0.0007619561150530257
-0.0007812461432822162
-0.0008060476081483182
-0.0007922690165560394
-0.000795024734874495
-0.0007812461432822162
-0.0007757347066453045
-0.0008253376363775088
-0.0008308490730144205
-0.0008032918898298626
-0.0008308490730144205
-0.0008914748760204477
-0.0008942305943389032
-0.0008611619745174342
-0.0008611619745174342
-0.0008804520027466246
-0.0008584062561989784
-0.000795024734874495
-0.0007619561150530257
-0.0008115590447852298
-0.0008694291294728014
-0.0008887191577019918
-0.0008639176928358897
-0.0008501391012436108
-0.0008556505378805224
-0.0008914748760204477
-0.0009135206225680943
-0.0009355663691157402
-0.0009576121156633864
-0.0009686349889372096
-0.0009934364538033119
-0.0010182379186694142
-0.0010237493553063252
-0.0010540622568093393
-0.001043039383535516
-0.00104028366521706
-0.0010375279468986046
-0.0010843751583123526
-0.0011174437781338222
-0.001056817975127795
-0.001012726482032502
-0.001012726482032502
-0.0010457951018539718
-0.0011036651865415433
-0.0011312223697261012
-0.0010733522850385297
-0.0009355663691157402
-0.000720620340276189
-0.0004560713817044334
-6.475938048371164e-05
0.00035135408560311223
0.0004588271000228878
0.00026041538109407124
-0.00014191949340047367
-0.0005222086213473721
-0.000795024734874495
-0.000952100679026475
-0.0010320165102616929
-0.0010485508201724275
-0.00104028366521706
-0.0010733522850385297
-0.0010871308766308087
-0.00109264231326772
-0.0011036651865415433
-0.0011257109330891897
-0.0011119323414969108
-0.0010871308766308087
-0.0010843751583123526
-0.0010761080033569854
-0.0010733522850385297
-0.0010733522850385297
-0.0010761080033569854
-0.001070596566720074
-0.0010871308766308087
-0.0010953980315861755
-0.0010595736934462504
-0.0010733522850385297
-0.0010788637216754414
-0.0010761080033569854
-0.001070596566720074
-0.0010623294117647064
-0.0010375279468986046
-0.0010540622568093393
-0.00109264231326772
-0.0011009094682230872
-0.0010953980315861755
-0.0010843751583123526
-0.0010540622568093393
-0.001026505073624781
-0.0010182379186694142
-0.0010292607919432368
-0.001015482200350958
-0.00104028366521706
-0.0010981537499046318
-0.0011064209048599993
-0.0010678408484016179
-0.0010237493553063252
-0.0009851692988479444
-0.0009934364538033119
-0.0010347722285801487
-0.0010099707637140464
-0.0010292607919432368
-0.001043039383535516
-0.001043039383535516
-0.001056817975127795
-0.0010513065384908833
-0.0010347722285801487
-0.0010485508201724275
-0.0010761080033569854
-0.0011119323414969108
-0.0011312223697261012
-0.0010953980315861755
-0.0010733522850385297
-0.0011009094682230872
-0.0011064209048599993
-0.0010733522850385297
-0.0010237493553063252
-0.0010320165102616929
-0.001056817975127795
-0.0010540622568093393
-0.001043039383535516
-0.0010457951018539718
-0.0010485508201724275
-0.0010650851300831622
-0.0010788637216754414
-0.001070596566720074
-0.0010595736934462504
-0.0010733522850385297
-0.0010871308766308087
-0.0011146880598153664
-0.0011312223697261012
-0.0011422452429999243
-0.0011422452429999243
-0.0011532681162737474
-0.0011725581445029378
-0.0011753138628213936
-0.0011808252994583053
-0.0011835810177767614
-0.0012194053559166863
-0.0012414511024643328
-0.0012386953841458767
-0.001233183947508965
-0.001222161074235142
-0.0012194053559166863
-0.0012386953841458767
-0.0012524739757381555
-0.0012497182574196996
-0.0012359396658274211
-0.0012414511024643328
-0.0012386953841458767
-0.0012304282291905097
-0.0012249167925535982
-0.0012304282291905097
-0.0012276725108720536
-0.0012166496375982305
-0.0012194053559166863
-0.0011973596093690403
-0.0012056267643244074
-0.0012111382009613188
-0.0011698024261844818
-0.0011670467078660266
-0.001156023834592203
-0.001161535271229115
-0.001161535271229115
-0.0011367338063630126
-0.0010981537499046318
-0.0010788637216754414
-0.0010788637216754414
-0.0010733522850385297
-0.0011091766231784547
-0.0011284666514076451
-0.0011339780880445568
-0.0011450009613183801
-0.0011670467078660266
-0.0011780695811398495
-0.0011890924544136726
-0.001208382482642863
-0.0012028710460059518
-0.001161535271229115
-0.001158779552910659
-0.0011394895246814685
-0.0011091766231784547
-0.0011339780880445568
-0.0011532681162737474
-0.0011670467078660266
-0.0011835810177767614
-0.0012138939192797744
-0.0012194053559166863
-0.0012138939192797744
-0.0011808252994583053
-0.0011835810177767614
-0.0012524739757381555
-0.0013186112153810948
-0.0013709698634317546
-0.0013186112153810948
-0.0011284666514076451
-0.0008280933546959645
-0.00039268986037995033
0.00015845380331120705
0.0006710174105439835
0.0008611619745174325
0.0007123531853208202
0.0003485983672846564
-0.0001226294651712832
-0.000615903044174869
-0.0009548563973449309
-0.00104028366521706
-0.0010457951018539718
-0.001043039383535516
-0.00109264231326772
-0.0011312223697261012
-0.001158779552910659
-0.0011918481727321284
-0.0012001153276874961
-0.001194603891050584
-0.0011918481727321284
-0.0011698024261844818
-0.0011422452429999243
-0.0011367338063630126
-0.001120199496452278
-0.0011119323414969108
-0.0011312223697261012
-0.0011339780880445568
-0.0011284666514076451
-0.0011036651865415433
-0.0010953980315861755
-0.0010816194399938968
-0.001056817975127795
-0.0010513065384908833
-0.0010457951018539718
-0.0010513065384908833
-0.0010650851300831622
-0.0010540622568093393
-0.00104028366521706
-0.0010540622568093393
-0.0010513065384908833
-0.0010457951018539718
-0.0010513065384908833
-0.001056817975127795
-0.00104028366521706
-0.0010072150453955906
-0.0009961921721217675
-0.0009906807354848563
-0.0009906807354848563
-0.0009851692988479444
-0.0010099707637140464
-0.0010017036087586794
-0.0010044593270771348
-0.0010209936369878696
-0.0010099707637140464
-0.0010072150453955906
-0.0010044593270771348
-0.0009851692988479444
-0.0009851692988479444
-0.0009851692988479444
-0.0009603678339818424
-0.0009658792706187539
-0.0009824135805294888
-0.0009961921721217675
-0.0010072150453955906
-0.001012726482032502
-0.0010209936369878696
-0.001012726482032502
-0.0009824135805294888
-0.0009603678339818424
-0.0009272992141603728
-0.0009217877775234612
-0.0009686349889372096
-0.000976902143892577
-0.0009824135805294888
-0.000979657862211033
-0.0009713907072556656
-0.0009548563973449309
-0.0009300549324788287
-0.0008969863126573594
-0.000874940566109713
-0.0008611619745174342
-0.0008887191577019918
-0.0009162763408865498
-0.0009107649042496381
-0.0008832077210650803
-0.0008528948195620666
-0.0008721848477912571
-0.0008804520027466246
-0.0008721848477912571
-0.0008694291294728014
-0.0008528948195620666
-0.0008694291294728014
-0.0008694291294728014
-0.0008639176928358897
-0.0008639176928358897
-0.0008528948195620666
-0.0008336047913328761
-0.0008446276646066993
-0.0008611619745174342
-0.0008336047913328761
-0.0008088033264667742
-0.0008225819180590531
-0.0008032918898298626
-0.0007922690165560394
-0.0008115590447852298
-0.0008170704814221414
-0.0008225819180590531
-0.000795024734874495
-0.0007895132982375835
-0.0007509332417792025
-0.000720620340276189
-0.0007151089036392773
-0.0007233760585946446
-0.0007151089036392773
-0.0006958188754100868
-0.0006655059739070732
-0.0006269259174486923
-0.0005938572976272227
-0.0005993687342641343
-0.0006131473258564133
-0.0006269259174486923
-0.0006076358892195017
-0.0006103916075379574
-0.0006214144808117806
-0.0005966130159456783
-0.0005745672693980323
-0.0005855901426718552
-0.000591101579308767
-0.0005855901426718552
-0.0005690558327611206
-0.0005690558327611206
-0.0005800787060349438
-0.0005855901426718552
-0.00060212445258259
-0.0005938572976272227
-0.0005690558327611206
-0.0005442543678950186
-0.0005056743114366376
-0.00048087284657053543
-0.0004974071564812702
-0.0004918957198443586
-0.0004891400015259028
-0.0005166971847104609
-0.0005828344243533996
-0.0006710174105439848
-0.0006351930724040594
-0.0005166971847104609
-0.00028797256427863044
0.00017774383154039756
0.0008446276646066979
0.0015611144274052025
0.0020626551613641565
0.0021563495841916518
0.0018201519493400466
0.0012745197222858006
0.0006351930724040583
0.00011436231021591448
-7.57822537575348e-05
-0.0001171180285343716
-0.00015294236667429682
-0.00018876670481422206
-0.00021356816968032413
-0.00022459104295414727
-0.00023836963454642628
-0.00023285819790951464
-0.00022459104295414727
-0.0001997895780880452
-0.00017498811322194308
-0.0001777438315403989
-0.00017223239490348733
-0.00013089662012665053
-8.129369039444639e-05
-7.85379720759906e-05
-9.78280003051811e-05
-8.129369039444639e-05
-8.956084534981374e-05
-9.507228198672531e-05
-2.8935042343786426e-05
6.8892957961388014e-06
6.8892957961388014e-06
1.3778591592272275e-06
-1.377859159228559e-06
3.9957915617608246e-05
6.200366216525454e-05
5.9247943846798756e-05
8.129369039444505e-05
7.853797207598924e-05
5.9247943846798756e-05
2.3423605706873515e-05
2.3423605706873515e-05
6.475938048371032e-05
9.782800030517979e-05
8.129369039444505e-05
7.30265354390777e-05
0.00010609515526054714
0.00010333943694209132
0.00010058371862363556
0.00010058371862363556
7.30265354390777e-05
8.129369039444505e-05
8.68051270313566e-05
8.956084534981241e-05
0.00011987374685282605
0.00014743093003738393
0.00014467521171892812
0.00011711802853437029
8.129369039444505e-05
7.853797207598924e-05
9.507228198672396e-05
0.00010333943694209132
6.751509880216611e-05
7.02708171206219e-05
0.00011436231021591448
0.0001253851834897376
0.00012814090180819342
9.23165636682682e-05
7.30265354390777e-05
7.02708171206219e-05
7.02708171206219e-05
3.720219729915245e-05
3.720219729915245e-05
5.9247943846798756e-05
9.507228198672396e-05
0.00010058371862363556
0.00011436231021591448
0.00010885087357900291
0.00010058371862363556
8.68051270313566e-05
8.68051270313566e-05
0.00010333943694209132
9.782800030517979e-05
9.782800030517979e-05
6.200366216525454e-05
5.373650720988717e-05
4.271363393606403e-05
4.546935225451981e-05
6.475938048371032e-05
7.578225375753347e-05
5.098078889143139e-05
4.271363393606403e-05
2.8935042343785094e-05
1.5156450751506162e-05
2.3423605706873515e-05
2.6179324025329308e-05
3.444647898069667e-05
3.9957915617608246e-05
2.6179324025329308e-05
6.475938048371032e-05
7.30265354390777e-05
6.751509880216611e-05
5.098078889143139e-05
3.444647898069667e-05
5.9247943846798756e-05
4.546935225451981e-05
5.9247943846798756e-05
7.578225375753347e-05
6.200366216525454e-05
7.02708171206219e-05
6.475938048371032e-05
6.475938048371032e-05
9.507228198672396e-05
0.00013089662012664922
0.000172232394903486
0.00016672095826657444
0.00013365233844510492
9.782800030517979e-05
8.956084534981241e-05
8.68051270313566e-05
7.853797207598924e-05
7.02708171206219e-05
8.129369039444505e-05
8.404940871290084e-05
5.649222552834297e-05
7.853797207598924e-05
9.782800030517979e-05
0.00010333943694209132
0.00011160659189745871
0.00010058371862363556
4.82250705729756e-05
1.7912169069961946e-05
3.169076066224089e-05
4.271363393606403e-05
4.82250705729756e-05
6.475938048371032e-05
6.200366216525454e-05
4.82250705729756e-05
5.098078889143139e-05
3.444647898069667e-05
1.2400732433050376e-05
-6.751509880216745e-05
-0.00018049954985885472
-0.00021356816968032413
-0.00014191949340047367
2.6179324025329308e-05
0.0010347722285801472
0.001800861921110856
0.0024153871061264967
0.0026799360646982523
0.0024264099794003196
0.0019414035553521009
0.0013020769054703587
0.000687551720454718
0.0003733998321507585
0.00025214822613870384
0.00015845380331120705
9.23165636682682e-05
7.30265354390777e-05
8.404940871290084e-05
7.853797207598924e-05
7.30265354390777e-05
5.098078889143139e-05
4.271363393606403e-05
5.9247943846798756e-05
5.649222552834297e-05
3.720219729915245e-05
4.82250705729756e-05
7.02708171206219e-05
8.404940871290084e-05
9.23165636682682e-05
7.853797207598924e-05
6.751509880216611e-05
8.404940871290084e-05
8.956084534981241e-05
8.956084534981241e-05
0.00011987374685282605
0.00012814090180819342
0.00011711802853437029
0.00010058371862363556
0.00010609515526054714
0.00010885087357900291
8.68051270313566e-05
9.507228198672396e-05
0.00010885087357900291
0.00010058371862363556
0.00012814090180819342
0.00011160659189745871
8.68051270313566e-05
8.404940871290084e-05
7.853797207598924e-05
9.782800030517979e-05
0.00012814090180819342
0.00011987374685282605
0.00011711802853437029
0.00013089662012664922
0.00013916377508201656
0.00013365233844510492
0.00011160659189745871
0.00011987374685282605
0.00011711802853437029
0.00013916377508201656
0.00014191949340047234
0.00010885087357900291
0.00010333943694209132
0.00013640805676356078
0.00015294236667429551
0.00017774383154039756
0.000172232394903486
0.00014191949340047234
0.0001556980849927513
0.0001556980849927513
0.00020530101472495543
0.00017498811322194178
0.00018601098649576498
0.00018601098649576498
0.000210812451361867
0.0002218353246356902
0.00020805673304341124
0.00022459104295414594
0.00024663678950179223
0.00024112535286488067
0.00026041538109407124
0.00027143825436789435
0.0002741939726863501
0.0003127740291447311
0.0003072625925078196
0.0002686825360494386
0.00026592681773098274
0.00026592681773098274
0.00025214822613870384
0.00024663678950179223
0.00023561391622796914
0.00022459104295414594
0.00022459104295414594
0.00022734676127260172
0.0002218353246356902
0.000210812451361867
0.000210812451361867
0.00019978957808804387
0.0001970338597695881
0.00020254529640649968
0.00020530101472495543
0.0001970338597695881
0.00019427814145113231
0.00023010247959105753
0.00021632388799877858
0.0001832552681773092
0.0001970338597695881
0.00019978957808804387
0.00023010247959105753
0.00027143825436789435
0.0002824611276417174
0.0002741939726863501
0.0002824611276417174
0.00023285819790951333
0.0002218353246356902
0.0002576596627756154
0.0002989954375524522
0.0003623769588769353
0.000365132677195391
0.00032655262073701005
0.0002686825360494386
0.0002852168459601733
0.000301751155870908
0.00027143825436789435
0.0002686825360494386
0.00031001831082627527
0.0002989954375524522
0.00025214822613870384
0.00027143825436789435
0.000301751155870908
0.00027143825436789435
0.00026041538109407124
0.000263171099412527
0.000263171099412527
0.0002493925078202481
0.0002769496910048059
0.0002934840009155406
0.0003072625925078196
0.00032379690241855427
0.000315529747463187
0.0002769496910048059
0.00024663678950179223
0.00017774383154039756
6.475938048371032e-05
7.02708171206219e-05
0.00018601098649576498
0.0004064684519722279
0.0008143147631036844
0.001401282764934767
0.001999273640039672
0.0023850742046234827
0.0023630284580758365
0.001957937865262836
0.0014949771877622636
0.0010237493553063243
0.000676528847180895
0.0004808728465705341
0.00038993414206149314
0.0003348197756923775
0.0003072625925078196
0.00032104118410009855
0.0003127740291447311
0.0003127740291447311
0.0002879725642786291
0.00027143825436789435
0.000263171099412527
0.0002686825360494386
0.0002576596627756154
0.00026041538109407124
0.0002549039444571596
0.0002549039444571596
0.0002741939726863501
0.00029072828259708476
0.000301751155870908
0.00032379690241855427
0.00029623971923399637
0.0002741939726863501
0.000301751155870908
0.00031001831082627527
0.00029623971923399637
0.00029623971923399637
0.00033206405737392166
0.0003623769588769353
0.0003596212405584795
0.00035410980392156795
0.0003733998321507585
0.00037891126878767
0.00036788839551384685
0.0003623769588769353
0.0003623769588769353
0.0003568655222400236
0.0003485983672846564
0.0003733998321507585
0.0003568655222400236
0.0003485983672846564
0.000365132677195391
0.0003982012970168605
0.00042300276188296266
0.00042851419851987416
0.00042024704356450677
0.0004422927901121532
0.00040371273365377215
0.00037615555046921414
0.00037891126878767
0.0004009570153353164
0.0004340256351567857
0.0004726056916151668
0.0004808728465705341
0.0004533156633859763
0.0004450485084306089
0.0004340256351567857
0.00042575848020141833
0.0004092241702906837
0.00041749132524605104
0.00041749132524605104
0.0004450485084306089
0.0005001628747997245
0.0005139414663920035
0.000508430029755092
0.0005249643396658268
0.0005111857480735478
0.0004615828183413437
0.0004615828183413437
0.000456071381704432
0.0005001628747997245
0.0005387429312581057
0.0005552772411688404
0.0005387429312581057
0.0004918957198443572
0.00047536140993362247
0.0004670942549782553
0.0004670942549782553
0.0004643385366597993
0.0004615828183413437
0.0004505599450675205
0.0004340256351567857
0.00042300276188296266
0.00042024704356450677
0.0004340256351567857
0.00043126991683832994
0.0004340256351567857
0.00043126991683832994
0.00042851419851987416
0.0004450485084306089
0.00042024704356450677
0.00038717842374303736
0.0003844227054245816
0.00042024704356450677
0.0004505599450675205
0.0004367813534752416
0.0004092241702906837
0.0004009570153353164
0.0004367813534752416
0.0004891400015259016
0.0004863842832074457
0.0004615828183413437
0.00043126991683832994
0.0004395370717936973
0.00048362856488898997
0.0004781171282520784
0.0004781171282520784
0.000469849973296711
0.0004643385366597993
0.0004643385366597993
0.0004533156633859763
0.0004367813534752416
0.0004726056916151668
0.0004863842832074457
0.0004918957198443572
0.0005001628747997245
0.0004478042267490647
0.0004064684519722279
0.0004009570153353164
0.0003623769588769353
0.000392689860379949
0.00042575848020141833
0.00043126991683832994
0.00042024704356450677
0.00040371273365377215
0.00042300276188296266
0.0004009570153353164
0.00038717842374303736
0.00041473560692759526
0.00041473560692759526
0.0003568655222400236
0.00027143825436789435
0.00025214822613870384
0.0003596212405584795
0.0006103916075379561
0.0009879250171663987
0.0014811985961699847
0.001988250766765849
0.00226933403524834
0.002225242542153048
0.001853220569161516
0.0014150613565270462
0.0010044593270771337
0.0006544831006332488
0.0005387429312581057
0.0005029185931181804
0.0004643385366597993
0.00043126991683832994
0.00042024704356450677
0.0004422927901121532
0.0004340256351567857
0.00042575848020141833
0.00038993414206149314
0.00037615555046921414
0.00037891126878767
0.0003733998321507585
0.00037891126878767
0.00041197988860913943
0.00042024704356450677
0.00040371273365377215
0.0004064684519722279
0.0004340256351567857
0.00042575848020141833
0.00037615555046921414
0.00038993414206149314
0.00041473560692759526
0.00042024704356450677
0.000392689860379949
0.0003954455786984048
0.0003982012970168605
0.000392689860379949
0.00038993414206149314
0.0003954455786984048
0.0003982012970168605
0.00041749132524605104
0.0004395370717936973
0.00042024704356450677
0.00036788839551384685
0.0003844227054245816
0.00041197988860913943
0.0004395370717936973
0.00043126991683832994
0.00041197988860913943
0.0004367813534752416
0.0004781171282520784
0.000469849973296711
0.0004340256351567857
0.00042024704356450677
0.0004533156633859763
0.0004670942549782553
0.0004422927901121532
0.00041197988860913943
0.0004092241702906837
0.00041473560692759526
0.0004092241702906837
0.00042575848020141833
0.000456071381704432
0.000469849973296711
0.0004533156633859763
0.0004450485084306089
0.000456071381704432
0.0004395370717936973
0.0004505599450675205
0.0004615828183413437
0.0004505599450675205
0.0004478042267490647
0.0004588271000228878
0.0004505599450675205
0.00043126991683832994
0.00041197988860913943
0.0004340256351567857
0.0005001628747997245
0.0005056743114366363
0.0004781171282520784
0.0004588271000228878
0.0004588271000228878
0.0004863842832074457
0.0004891400015259016
0.0004670942549782553
0.0004422927901121532
0.0004340256351567857
0.00042575848020141833
0.00042851419851987416
0.00042024704356450677
0.0003816669871061258
0.00034584264896620056
0.00037064411383230263
0.0004009570153353164
0.0003844227054245816
0.0003623769588769353
0.0003485983672846564
0.00032655262073701005
0.00032104118410009855
0.0003568655222400236
0.00035410980392156795
0.0003375754940108332
0.0003485983672846564
0.0003430869306477448
0.00033206405737392166
0.0003430869306477448
0.0003982012970168605
0.0004367813534752416
0.0003816669871061258
0.0003623769588769353
0.00038717842374303736
0.00041473560692759526
0.0004726056916151668
0.0005139414663920035
0.0004808728465705341
0.0004367813534752416
0.000392689860379949
0.0003844227054245816
0.00037615555046921414
0.0003623769588769353
0.00035410980392156795
0.0003623769588769353
0.0003954455786984048
0.00041473560692759526
0.0003982012970168605
0.0003623769588769353
0.00032379690241855427
0.00029623971923399637
0.00030450687418936376
0.0003072625925078196
0.0003375754940108332
0.0003430869306477448
0.0003293083390554659
0.0003182854657816428
0.00029623971923399637
0.00030450687418936376
0.000301751155870908
0.00027970540932326175
0.00023285819790951333
0.00014743093003738393
0.00011987374685282605
0.00019978957808804387
0.0003954455786984048
0.0007288874952315547
0.0012194053559166852
0.001833930540932325
0.0022858683451590744
0.0023712956130312038
0.0020681665980010673
0.0016244959487296858
0.0011725581445029367
0.0007343989318684667
0.0005001628747997245
0.0004533156633859763
0.00041197988860913943
0.00035135408560311223
0.0002934840009155406
0.000263171099412527
0.0002741939726863501
0.000263171099412527
0.0002576596627756154
0.00026592681773098274
0.0002549039444571596
0.00023010247959105753
0.00024112535286488067
0.00023010247959105753
0.00019978957808804387
0.00023285819790951333
0.0002383696345464249
0.00023010247959105753
0.00024388107118333642
0.00023010247959105753
0.0002383696345464249
0.0002741939726863501
0.00030450687418936376
0.0002989954375524522
0.0002879725642786291
0.00026592681773098274
0.0002741939726863501
0.0002852168459601733
0.00031001831082627527
0.0002824611276417174
0.0002741939726863501
0.00029072828259708476
0.000315529747463187
0.0002769496910048059
0.000263171099412527
0.0002824611276417174
0.0002934840009155406
0.0002879725642786291
0.00031001831082627527
0.000301751155870908
0.00029623971923399637
0.0002879725642786291
0.0002879725642786291
0.00032655262073701005
0.000340331212329289
0.0002989954375524522
0.0002934840009155406
0.00032379690241855427
0.000315529747463187
0.00029072828259708476
0.00031001831082627527
0.00032655262073701005
0.00032104118410009855
0.0003182854657816428
0.0003182854657816428
0.0002852168459601733
0.00029072828259708476
0.000301751155870908
0.0003375754940108332
0.0003430869306477448
0.00035410980392156795
0.0003485983672846564
0.00032655262073701005
0.000315529747463187
0.00032655262073701005
0.0003375754940108332
0.00035135408560311223
0.00035410980392156795
0.000365132677195391
0.0003816669871061258
0.00040371273365377215
0.0003844227054245816
0.00038993414206149314
0.00038993414206149314
0.00038717842374303736
0.0003954455786984048
0.0004092241702906837
0.0003733998321507585
0.0003623769588769353
0.0003623769588769353
0.0003293083390554659
0.00032655262073701005
0.00035135408560311223
0.00036788839551384685
0.0003485983672846564
0.00035135408560311223
0.0003596212405584795
0.0003348197756923775
0.00032379690241855427
0.00032104118410009855
0.0003293083390554659
0.0003485983672846564
0.0003733998321507585
0.00038717842374303736
0.00041473560692759526
0.0004340256351567857
0.00042575848020141833
0.0003982012970168605
0.00040371273365377215
0.00041473560692759526
0.0004505599450675205
0.0004918957198443572
0.0004918957198443572
0.0004615828183413437
0.0004395370717936973
0.0004367813534752416
0.00043126991683832994
0.00041473560692759526
0.00042300276188296266
0.00042024704356450677
0.0004064684519722279
0.0003733998321507585
0.00037064411383230263
0.0003844227054245816
0.0003485983672846564
0.0003293083390554659
0.0003568655222400236
0.00035410980392156795
0.0003816669871061258
0.00041749132524605104
0.0003844227054245816
0.00034584264896620056
0.00035135408560311223
0.00037891126878767
0.0003733998321507585
0.0003568655222400236
0.00035135408560311223
0.0003182854657816428
0.00024112535286488067
0.00021632388799877858
0.00037891126878767
0.0006296816357671465
0.000998947890440222
0.00151702293430991
0.0020571437247272444
0.0023878299229419388
0.00239334135957885
0.0020709223163195233
0.001607961638818951
0.0011091766231784534
0.000687551720454718
0.000508430029755092
0.000456071381704432
0.00042575848020141833
0.00042024704356450677
0.0004092241702906837
0.0003816669871061258
0.00038993414206149314
0.0003954455786984048
0.0003844227054245816
0.00038717842374303736
0.00037891126878767
0.000392689860379949
0.0003596212405584795
0.00035135408560311223
0.0003623769588769353
0.0003954455786984048
0.00041197988860913943
0.00040371273365377215
0.0004092241702906837
0.0004092241702906837
0.0003982012970168605
0.00037615555046921414
0.000392689860379949
0.00040371273365377215
0.0004092241702906837
0.000392689860379949
0.00041749132524605104
0.00042851419851987416
0.0004450485084306089
0.0004395370717936973
0.0004505599450675205
0.0004450485084306089
0.0004367813534752416
0.0004478042267490647
0.000469849973296711
0.0004643385366597993
0.0004670942549782553
0.0004863842832074457
0.00047536140993362247
0.000469849973296711
0.0004918957198443572
0.0004643385366597993
0.0004367813534752416
0.0004588271000228878
0.00047536140993362247
0.00047536140993362247
0.000469849973296711
0.0004946514381628131
0.0004918957198443572
0.0004918957198443572
0.0004946514381628131
0.0005139414663920035
0.0005111857480735478
0.0005029185931181804
0.0005111857480735478
0.0005194529030289152
0.0005249643396658268
0.0005304757763027383
0.0005332314946211942
0.0005332314946211942
0.0005552772411688404
0.0005663001144426635
0.0005690558327611192
0.0005580329594872961
0.0005580329594872961
0.0005938572976272215
0.0006269259174486908
0.000637948790722514
0.0006462159456778814
0.0006407045090409697
0.0006131473258564118
0.0005966130159456772
0.0005828344243533982
0.0005773229877164866
0.0006103916075379561
0.0006186587624933234
0.0005938572976272215
0.000599368734264133
0.0005883458609903097
0.000585590142671854
0.0005966130159456772
0.0006159030441748677
0.0006159030441748677
0.0005938572976272215
0.000585590142671854
0.0005773229877164866
0.0005525215228503846
0.0005552772411688404
0.0005745672693980309
0.0005828344243533982
0.0006021244525825888
0.0006131473258564118
0.0006048801709010444
0.000599368734264133
0.0006103916075379561
0.000637948790722514
0.0006489716639963371
0.0006710174105439835
0.000679284565499351
0.0006958188754100854
0.0007399103685053779
0.0007261317769130989
0.000679284565499351
0.0006655059739070718
0.0006682616922255276
0.000687551720454718
0.0006985745937285414
0.0006985745937285414
0.0006930631570916297
0.0006820402838178067
0.0006737731288624392
0.0006655059739070718
0.0006517273823147929
0.0006214144808117793
0.0006076358892195001
0.0006131473258564118
0.0006241701991302349
0.0006241701991302349
0.0006103916075379561
0.0005938572976272215
0.000599368734264133
0.0006186587624933234
0.0006214144808117793
0.0006269259174486908
0.0006241701991302349
0.0006131473258564118
0.0005552772411688404
0.00048362856488898997
0.0005277200579842825
0.0006544831006332488
0.000908009185931181
0.001337901243610284
0.001905579217212176
0.0024401885709925985
0.002652378881513694
0.0025586844586861974
0.0021811510490577545
0.0017457475547417404
0.0012772754406042562
0.0008997420309758136
0.000753688960097657
0.0007095974670023644
0.0006655059739070718
0.0006241701991302349
0.0006214144808117793
0.0006434602273594254
0.0006434602273594254
0.0006462159456778814
0.0006489716639963371
0.0006655059739070718
0.0006517273823147929
0.0006324373540856024
0.0006324373540856024
0.0006434602273594254
0.0006296816357671465
0.0006241701991302349
0.0006462159456778814
0.0006462159456778814
0.0006462159456778814
0.0006407045090409697
0.0006599945372701603
0.0006627502555886161
0.0006655059739070718
0.000637948790722514
0.000637948790722514
0.0006599945372701603
0.0006958188754100854
0.0006930631570916297
0.0006820402838178067
0.0006655059739070718
0.0006407045090409697
0.000637948790722514
0.0006682616922255276
0.0006930631570916297
0.0007068417486839086
0.000701330312046997
0.0006985745937285414
0.000717864621957732
0.0007206203402761877
0.0007206203402761877
0.0007261317769130989
0.0007095974670023644
0.0006985745937285414
0.0006903074387731741
0.0007040860303654528
0.0007123531853208202
0.0007343989318684667
0.0007399103685053779
0.0007399103685053779
0.0007343989318684667
0.0007316432135500107
0.000753688960097657
0.0007509332417792012
0.0007702232700083917
0.0007702232700083917
0.0007647118333714802
0.000767467551689936
0.0007977804531929496
0.0008198261997405958
0.0008088033264667726
0.0007977804531929496
0.0007922690165560381
0.0008005361715114055
0.0008418719462882423
0.0008280933546959632
0.0008225819180590517
0.0008473833829251538
0.0008721848477912556
0.0008721848477912556
0.0008666734111543443
0.0008639176928358884
0.0008418719462882423
0.0008225819180590517
0.0008280933546959632
0.0008143147631036844
0.000806047608148317
0.000806047608148317
0.0007977804531929496
0.0007840018616006707
0.0007619561150530243
0.0007233760585946433
0.0007261317769130989
0.0007592003967345686
0.0007702232700083917
0.0007784904249637591
0.0007619561150530243
0.0007564446784161128
0.0007592003967345686
0.0007481775234607456
0.0007702232700083917
0.0007895132982375822
0.0007867575799191265
0.0007812461432822147
0.0007950247348744939
0.0008143147631036844
0.0007950247348744939
0.0007950247348744939
0.0008115590447852286
0.0008225819180590517
0.0008473833829251538
0.000858406256198977
0.0008721848477912556
0.000858406256198977
0.0008391162279697863
0.0008473833829251538
0.0008280933546959632
0.0008225819180590517
0.0008225819180590517
0.0008308490730144192
0.0008308490730144192
0.0008143147631036844
0.0007922690165560381
0.0007867575799191265
0.0007812461432822147
0.0007784904249637591
0.000753688960097657
0.0007454218051422897
0.0007371546501869223
0.0007509332417792012
0.0007647118333714802
0.000767467551689936
0.0007592003967345686
0.000753688960097657
0.000753688960097657
0.0007729789883268476
0.0007647118333714802
0.000701330312046997
0.0006324373540856024
0.0006655059739070718
0.0007922690165560381
0.0010209936369878683
0.0014591528496223384
0.002611043106736857
0.0029114164034485385
0.002842523445487143
0.002442944289311054
0.0019248692454413665
0.0014288399481193247
0.0010650851300831607
0.0009190320592050041
0.0008832077210650791
0.0008446276646066979
0.0007867575799191265
0.0007592003967345686
0.0007564446784161128
0.0007592003967345686
0.0007481775234607456
0.0007371546501869223
0.0007619561150530243
0.0007564446784161128
0.000753688960097657
0.0007454218051422897
0.0007316432135500107
0.0007206203402761877
0.0007371546501869223
0.0007564446784161128
0.000753688960097657
0.0007454218051422897
0.0007399103685053779
0.0007619561150530243
0.0007784904249637591
0.0007619561150530243
0.0007509332417792012
0.0007564446784161128
0.0007757347066453035
0.0007867575799191265
0.000767467551689936
0.0007840018616006707
0.0007950247348744939
0.0007867575799191265
0.0007867575799191265
0.0007757347066453035
0.0007729789883268476
0.0007922690165560381
0.0008032918898298613
0.0007895132982375822
0.0007812461432822147
0.0007702232700083917
0.000767467551689936
0.0007977804531929496
0.0008225819180590517
0.0008143147631036844
0.0008198261997405958
0.0008225819180590517
0.0008280933546959632
0.0008336047913328749
0.0008198261997405958
0.0008418719462882423
0.0008639176928358884
0.0008776962844281674
0.0008776962844281674
0.0008859634393835348
0.000896986312657358
0.0009052534676127252
0.0009052534676127252
0.0009024977492942696
0.0009300549324788276
0.0009383220874341949
0.0009521006790264736
0.0009686349889372082
0.00097414642557412
0.0009879250171663987
0.000985169298847943
0.0010017036087586776
0.0010347722285801472
0.001048550820172426
0.0010320165102616916
0.0010127264820325008
0.0010044593270771337
0.0009961921721217662
0.00097414642557412
0.000960367833981841
0.0009548563973449294
0.0009245434958419158
0.0009107649042496368
0.0008997420309758136
0.0008914748760204465
0.0008639176928358884
0.0008528948195620654
0.0008446276646066979
0.0008336047913328749
0.0008308490730144192
0.0008115590447852286
0.0008005361715114055
0.0008115590447852286
0.0008198261997405958
0.0008363605096513305
0.0008308490730144192
0.00081707048142214
0.0008032918898298613
0.0007950247348744939
0.0008363605096513305
0.0008418719462882423
0.0008391162279697863
0.0008528948195620654
0.0008721848477912556
0.0008666734111543443
0.000858406256198977
0.0008528948195620654
0.0009024977492942696
0.0009465892423895617
0.0009465892423895617
0.0009383220874341949
0.0009107649042496368
0.0008804520027466232
0.0008749405661097116
0.0008887191577019906
0.0008942305943389022
0.0008859634393835348
0.0008694291294728002
0.0008611619745174325
0.000855650537880521
0.0008501391012436096
0.0008336047913328749
0.0008225819180590517
0.0008253376363775078
0.0008418719462882423
0.0008391162279697863
0.0008308490730144192
0.0008225819180590517
0.0008115590447852286
0.0008115590447852286
0.0008253376363775078
0.0008032918898298613
0.000806047608148317
0.0007757347066453035
0.0007095974670023644
0.0007206203402761877
0.0008501391012436096
0.0010788637216754397
0.001453641412985427
0.001993762203402761
0.0024897915007248026
0.0027019818112458977
0.0025724630502784764
0.0021315481193255503
0.0016548088502326991
0.0012690082856488892
0.001051306538490882
0.000949344960708018
0.0009052534676127252
0.0008914748760204465
0.0008859634393835348
0.0008611619745174325
0.0008198261997405958
0.0008005361715114055
0.0008143147631036844
0.00081707048142214
0.0008198261997405958
0.0008005361715114055
0.0007977804531929496
0.0008280933546959632
0.00081707048142214
0.0008088033264667726
0.0008005361715114055
0.0008032918898298613
0.000806047608148317
0.0008143147631036844
0.00081707048142214
0.0008198261997405958
0.0008308490730144192
0.0008391162279697863
0.0008363605096513305
0.0008253376363775078
0.0008280933546959632
0.0008418719462882423
0.0008418719462882423
0.0008473833829251538
0.0008528948195620654
0.0008446276646066979
0.0008225819180590517
0.0008253376363775078
0.000858406256198977
0.0008914748760204465
0.0008887191577019906
0.0008721848477912556
0.0008639176928358884
0.0008776962844281674
0.0008859634393835348
0.0008859634393835348
0.0008997420309758136
0.0009135206225680924
0.0009052534676127252
0.0009272992141603715
0.0009576121156633854
0.0009686349889372082
0.0009548563973449294
0.0009465892423895617
0.000998947890440222
0.0010154822003509568
0.0010265050736247801
0.0010347722285801472
0.0010650851300831607
0.0010595736934462493
0.0010568179751277937
0.0010595736934462493
0.0010678408484016168
0.0010953980315861747
0.0011146880598153653
0.001103665186541542
0.0010871308766308072
0.001103665186541542
0.001125710933089188
0.0011394895246814672
0.0011532681162737465
0.0011560238345922017
0.001128466651407644
0.001128466651407644
0.001125710933089188
0.001089886594949263
0.0010540622568093376
0.0010347722285801472
0.0010182379186694126
0.0010017036087586776
0.0009769021438925758
0.0009383220874341949
0.0009052534676127252
0.0008832077210650791
0.0008804520027466232
0.0008804520027466232
0.0008859634393835348
0.000858406256198977
0.0008418719462882423
0.0008446276646066979
0.0008666734111543443
0.0008501391012436096
0.0008308490730144192
0.0008280933546959632
0.0008225819180590517
0.0008363605096513305
0.0008528948195620654
0.000855650537880521
0.0008528948195620654
0.0008473833829251538
0.0008776962844281674
0.0008832077210650791
0.0008776962844281674
0.000896986312657358
0.000949344960708018
0.0009658792706187528
0.0009658792706187528
0.0009438335240711064
0.0009135206225680924
0.0009024977492942696
0.0008997420309758136
0.0009024977492942696
0.0008914748760204465
0.0008887191577019906
0.0008776962844281674
0.0008694291294728002
0.0008694291294728002
0.0008446276646066979
0.0008308490730144192
0.0008446276646066979
0.0008501391012436096
0.0008446276646066979
0.000806047608148317
0.0007950247348744939
0.0008280933546959632
0.0008501391012436096
0.0008639176928358884
0.0008528948195620654
0.0008198261997405958
0.0007950247348744939
0.0007454218051422897
0.0007206203402761877
0.0008115590447852286
0.000971390707255664
0.0012552296940566102
0.0016355188220035087
0.002018563668268863
0.0021315481193255503
0.001957937865262836
0.0016244959487296858
0.0013268783703364606
0.0010981537499046305
0.0009300549324788276
0.000858406256198977
0.0008308490730144192
0.0008391162279697863
0.000855650537880521
0.0008391162279697863
0.0008363605096513305
0.0008308490730144192
0.0008088033264667726
0.0007977804531929496
0.0008088033264667726
0.0008115590447852286
0.0008005361715114055
0.0008198261997405958
0.0008418719462882423
0.0008528948195620654
0.0008198261997405958
0.0008115590447852286
0.0008225819180590517
0.000855650537880521
0.0008694291294728002
0.000855650537880521
0.0008446276646066979
0.0008501391012436096
0.0008666734111543443
0.0008666734111543443
0.0008611619745174325
0.000855650537880521
0.0008666734111543443
0.0008914748760204465
0.0008914748760204465
0.0008914748760204465
0.0008776962844281674
0.0008418719462882423
0.0008418719462882423
0.0008694291294728002
0.0009107649042496368
0.0008997420309758136
0.0008804520027466232
0.0008914748760204465
0.0009052534676127252
0.0008859634393835348
0.0008859634393835348
0.000908009185931181
0.0009355663691157388
0.0009355663691157388
0.0009107649042496368
0.0008997420309758136
0.0009107649042496368
0.0009521006790264736
0.0009465892423895617
0.0009355663691157388
0.0009465892423895617
0.0009548563973449294
0.0009631235523002968
0.0009879250171663987
0.0009879250171663987
0.0009465892423895617
0.0009465892423895617
0.0009686349889372082
0.000982413580529487
0.0009658792706187528
0.0009548563973449294
0.000971390707255664
0.000985169298847943
0.000982413580529487
0.0009879250171663987
0.0009796578622110316
0.0009934364538033101
0.0010017036087586776
0.0010017036087586776
0.0010099707637140451
0.0009769021438925758
0.0009355663691157388
0.0009190320592050041
0.0009438335240711064
0.0009686349889372082
0.0009631235523002968
0.0009410778057526506
0.0009162763408865484
0.000949344960708018
0.0009383220874341949
0.000896986312657358
0.0008749405661097116
0.0008528948195620654
0.000855650537880521
0.0008914748760204465
0.0008887191577019906
0.0008804520027466232
0.0008887191577019906
0.0008859634393835348
0.0008997420309758136
0.0009272992141603715
0.0009245434958419158
0.0009135206225680924
0.0009272992141603715
0.0009410778057526506
0.00092178777752346
0.0008942305943389022
0.0009190320592050041
0.000960367833981841
0.0010127264820325008
0.001007215045395589
0.0009576121156633854
0.0009438335240711064
0.0009658792706187528
0.000960367833981841
0.000960367833981841
0.000949344960708018
0.0009383220874341949
0.000908009185931181
0.0008639176928358884
0.0008804520027466232
0.0008776962844281674
0.000858406256198977
0.0008611619745174325
0.0008473833829251538
0.0008253376363775078
0.0008446276646066979
0.0008666734111543443
0.0008666734111543443
0.0008832077210650791
0.0008776962844281674
0.0008611619745174325
0.0008391162279697863
0.000858406256198977
0.0008446276646066979
0.0008528948195620654
0.0009410778057526506
0.0011201994964522765
0.0013516798352025624
0.0015638701457236582
0.0017567704280155635
0.0017567704280155635
0.0014619085679407943
0.001128466651407644
0.0009135206225680924
0.000806047608148317
0.0007288874952315547
0.0007426660868238338
0.0007895132982375822
0.0008391162279697863
0.0008914748760204465
0.0009107649042496368
0.0009024977492942696
0.0008859634393835348
0.0008997420309758136
0.0009162763408865484
0.0009135206225680924
0.0009190320592050041
0.0008776962844281674
0.0009024977492942696
0.0009162763408865484
0.0009328106507972832
0.0009383220874341949
0.0009052534676127252
0.00092178777752346
0.000949344960708018
0.0009686349889372082
0.0009328106507972832
0.0009135206225680924
0.0009410778057526506
0.0009576121156633854
0.0009631235523002968
0.0009355663691157388
0.0009410778057526506
0.00097414642557412
0.0009934364538033101
0.0009769021438925758
0.0009769021438925758
0.0010044593270771337
0.000998947890440222
0.000985169298847943
0.0010430393835355147
0.0010127264820325008
0.001037527946898603
0.0010540622568093376
0.0010430393835355147
0.0010347722285801472
0.0010265050736247801
0.0010347722285801472
0.0010568179751277937
0.0010705965667200726
0.0010595736934462493
0.0010568179751277937
0.0010595736934462493
0.0010595736934462493
0.0010761080033569843
0.0010623294117647053
0.0010237493553063243
0.0010044593270771337
0.0010430393835355147
0.0010650851300831607
0.001051306538490882
0.0010733522850385282
0.0010733522850385282
0.001037527946898603
0.0010402836652170589
0.001048550820172426
0.0010540622568093376
0.0010678408484016168
0.0010816194399938957
0.0010816194399938957
0.0010733522850385282
0.0010678408484016168
0.0010871308766308072
0.0011201994964522765
0.0011119323414969095
0.0011146880598153653
0.0011312223697260999
0.0011229552147707324
0.0011119323414969095
0.001128466651407644
0.0011174437781338207
0.0011009094682230861
0.0010788637216754397
0.0010871308766308072
0.0010871308766308072
0.0011146880598153653
0.0011201994964522765
0.0011091766231784534
0.0011174437781338207
0.0011174437781338207
0.0010926423132677188
0.0010871308766308072
0.0011091766231784534
0.0010761080033569843
0.0010871308766308072
0.0011146880598153653
0.0011064209048599978
0.0011091766231784534
0.001103665186541542
0.0010953980315861747
0.0011091766231784534
0.0011312223697260999
0.0011394895246814672
0.0011477566796368347
0.0011753138628213923
0.0011835810177767598
0.0011946038910505827
0.0011642909895475692
0.001178069581139848
0.001169802426184481
0.0011615352712291134
0.0011505123979552907
0.001136733806363011
0.0011560238345922017
0.001180825299458304
0.0011835810177767598
0.0011532681162737465
0.001136733806363011
0.0011339780880445555
0.0011091766231784534
0.0011009094682230861
0.0011009094682230861
0.001103665186541542
0.0010871308766308072
0.0010650851300831607
0.0010595736934462493
0.0010705965667200726
0.0010761080033569843
0.0010705965667200726
0.001048550820172426
0.0010347722285801472
0.0010209936369878683
0.001037527946898603
0.0010953980315861747
0.001271764003967345
0.001514267215991454
0.001748503273060196
0.0019827393301289375
0.002145326710917829
0.0020681665980010673
0.0018091290760662239
0.0015445801174944675
0.0013268783703364606
0.0011642909895475692
0.0010540622568093376
0.0010402836652170589
0.0010457951018539703
0.0010540622568093376
0.0010788637216754397
0.0010761080033569843
0.0010733522850385282
0.0010926423132677188
0.0011064209048599978
0.0010926423132677188
0.0010761080033569843
0.0010705965667200726
0.0010650851300831607
0.001048550820172426
0.0010678408484016168
0.0010953980315861747
0.001128466651407644
0.0011201994964522765
0.001125710933089188
0.0011009094682230861
0.0010705965667200726
0.0010568179751277937
0.0010568179751277937
0.0010733522850385282
0.0010871308766308072
0.0011146880598153653
0.0011394895246814672
0.001128466651407644
0.0011174437781338207
0.0011146880598153653
0.0011229552147707324
0.0011146880598153653
0.0011119323414969095
0.0011119323414969095
0.0011174437781338207
0.0011312223697260999
0.0011450009613183788
0.001136733806363011
0.0011532681162737465
0.001178069581139848
0.0011835810177767598
0.0011422452429999228
0.0011312223697260999
0.001180825299458304
0.0011918481727321271
0.001180825299458304
0.0011725581445029367
0.0011753138628213923
0.0011946038910505827
0.0012028710460059502
0.0011918481727321271
0.0011615352712291134
0.0011532681162737465
0.0011725581445029367
0.0011863367360952157
0.0011973596093690386
0.001180825299458304
0.0011642909895475692
0.0011835810177767598
0.001180825299458304
0.0011615352712291134
0.0011753138628213923
0.001205626764324406
0.0012166496375982292
0.0012083824826428621
0.0012552296940566102
0.0012634968490119777
0.0012331839475089635
0.0012331839475089635
0.0012414511024643313
0.0012194053559166852
0.0012111382009613175
0.0012138939192797731
0.001205626764324406
0.0012166496375982292
0.001244206820782787
0.0012166496375982292
0.0011946038910505827
0.0011946038910505827
0.0011863367360952157
0.0011863367360952157
0.0012111382009613175
0.0011946038910505827
0.0011835810177767598
0.0011725581445029367
0.0011450009613183788
0.0011587795529106576
0.0011394895246814672
0.0011339780880445555
0.0011450009613183788
0.0011505123979552907
0.001178069581139848
0.001167046707866025
0.0012028710460059502
0.0012221610742351409
0.0012111382009613175
0.0012111382009613175
0.0012001153276874944
0.0012221610742351409
0.0012662525673304335
0.001285542595559624
0.0012745197222858006
0.001246962539101243
0.001224916792553597
0.0012166496375982292
0.0012111382009613175
0.0011918481727321271
0.001180825299458304
0.0011863367360952157
0.0011946038910505827
0.001205626764324406
0.001224916792553597
0.0012359396658274198
0.001205626764324406
0.0011973596093690386
0.0011973596093690386
0.0012001153276874944
0.0011946038910505827
0.0011642909895475692
0.001136733806363011
0.0011146880598153653
0.0011119323414969095
0.0011312223697260999
0.0011505123979552907
0.0011422452429999228
0.0010843751583123511
0.0010099707637140451
0.001007215045395589
0.001125710933089188
0.0014123056382085901
0.001833930540932325
0.002332715556572822
0.002784653360799572
0.0029995993896391225
0.0028866149385824358
0.002533882993820095
0.002103990936140992
0.0016989003433279916
0.0013654584267948416
0.0012414511024643313
0.0012386953841458756
0.0012138939192797731
0.0011918481727321271
0.0011863367360952157
0.001169802426184481
0.0011615352712291134
0.0011725581445029367
0.0011725581445029367
0.0011477566796368347
0.001125710933089188
0.0011477566796368347
0.0011587795529106576
0.001167046707866025
0.001169802426184481
0.001180825299458304
0.0012001153276874944
0.0012166496375982292
0.001180825299458304
0.0011753138628213923
0.001180825299458304
0.0011946038910505827
0.0012083824826428621
0.0012001153276874944
0.0011863367360952157
0.0011918481727321271
0.0012028710460059502
0.0012194053559166852
0.0012304282291905084
0.001224916792553597
0.0012166496375982292
0.001257985412375066
0.0012800311589227123
0.0012662525673304335
0.0012497182574196988
0.001244206820782787
0.0012745197222858006
0.001271764003967345
0.0012634968490119777
0.001257985412375066
0.0012607411306935217
0.0012800311589227123
0.0012910540321965354
0.0012882983138780798
0.0012827868772411677
0.0012745197222858006
0.001293809750514991
0.001318611215381093
0.001321366933699549
0.0013268783703364606
0.001318611215381093
0.0013020769054703587
0.0013020769054703587
0.0013048326237888143
0.001321366933699549
0.0013296340886549166
0.001332389806973372
0.001324122652018005
0.0013130997787441814
0.001335145525291828
0.0013406569619287395
0.0013516798352025624
0.0013682141451132974
0.001376481300068665
0.0013682141451132974
0.0013654584267948416
0.0013544355535210185
0.0013627027084763858
0.001376481300068665
0.0013709698634317533
0.0013544355535210185
0.0013516798352025624
0.0013654584267948416
0.0013461683985656512
0.0013075883421072702
0.001285542595559624
0.001246962539101243
0.0012276725108720525
0.0012414511024643313
0.001246962539101243
0.0012276725108720525
0.0012276725108720525
0.001224916792553597
0.001246962539101243
0.0011946038910505827
0.001178069581139848
0.001178069581139848
0.0012028710460059502
0.0012111382009613175
0.0012414511024643313
0.0012414511024643313
0.0012276725108720525
0.0012331839475089635
0.0012359396658274198
0.0012331839475089635
0.0012304282291905084
0.0012607411306935217
0.001293809750514991
0.0012965654688334468
0.001285542595559624
0.0012634968490119777
0.0012276725108720525
0.0012083824826428621
0.0012083824826428621
0.0011918481727321271
0.0011835810177767598
0.001180825299458304
0.0011753138628213923
0.0011890924544136717
0.0012194053559166852
0.0011973596093690386
0.0011477566796368347
0.0011394895246814672
0.0011450009613183788
0.0011505123979552907
0.0011560238345922017
0.0011339780880445555
0.0011146880598153653
0.0011339780880445555
0.0011477566796368347
0.0011560238345922017
0.0011146880598153653
0.0010347722285801472
0.0008997420309758136
0.0008005361715114055
0.0008308490730144192
0.0009658792706187528
0.0012662525673304335
0.001806373357747768
0.0025559287403677414
0.0032062782635233072
0.0034515371938658728
0.0032531254749370558
0.002798431952391851
0.0023354712748912786
0.001806373357747768
0.0014481299763485153
0.001318611215381093
0.0012386953841458756
0.001167046707866025
0.0011450009613183788
0.0011477566796368347
0.001136733806363011
0.0010953980315861747
0.0010650851300831607
0.0010347722285801472
0.0010320165102616916
0.0010265050736247801
0.0010127264820325008
0.0010292607919432355
0.0010595736934462493
0.0010733522850385282
0.0010761080033569843
0.0010623294117647053
0.0010540622568093376
0.0010733522850385282
0.0011064209048599978
0.0010981537499046305
0.0010816194399938957
0.0010678408484016168
0.0010540622568093376
0.0010265050736247801
0.0010127264820325008
0.0010154822003509568
0.0009906807354848547
0.0009658792706187528
0.0009879250171663987
0.0010044593270771337
0.001007215045395589
0.0010540622568093376
0.0011587795529106576
0.0012414511024643313
0.001246962539101243
0.0012276725108720525
0.001169802426184481
0.0011339780880445555
0.0010843751583123511
0.0010705965667200726
0.0010733522850385282
0.0010953980315861747
0.0010733522850385282
0.000998947890440222
0.0010017036087586776
0.000982413580529487
0.0009769021438925758
0.0010237493553063243
0.0010402836652170589
0.0010733522850385282
0.0010926423132677188
0.0011091766231784534
0.0011174437781338207
0.0011009094682230861
0.0010788637216754397
0.0010733522850385282
0.0010623294117647053
0.001048550820172426
0.0010788637216754397
0.001103665186541542
0.001128466651407644
0.001125710933089188
0.0011146880598153653
0.0011312223697260999
0.0011174437781338207
0.0010705965667200726
0.0010678408484016168
0.0010843751583123511
0.0010953980315861747
0.001103665186541542
0.001128466651407644
0.0011119323414969095
0.0010705965667200726
0.0010292607919432355
0.0010292607919432355
0.001089886594949263
0.0012083824826428621
0.0011505123979552907
0.0010816194399938957
0.001007215045395589
0.0009300549324788276
0.0009162763408865484
0.00097414642557412
0.0010568179751277937
0.0011312223697260999
0.0011587795529106576
0.001169802426184481
0.001136733806363011
0.0010733522850385282
0.0010320165102616916
0.0010044593270771337
0.0010099707637140451
0.0011091766231784534
0.0012304282291905084
0.0011890924544136717
0.0011009094682230861
0.0010733522850385282
0.0011450009613183788
0.0011946038910505827
0.0011918481727321271
0.0011532681162737465
0.001180825299458304
0.0011973596093690386
0.0011973596093690386
0.0011890924544136717
0.001167046707866025
0.0010981537499046305
0.0010265050736247801
0.000949344960708018
0.0009355663691157388
0.000960367833981841
0.0009796578622110316
0.0009961921721217662
0.0010017036087586776
0.0009879250171663987
0.0009934364538033101
0.0010292607919432355
0.001051306538490882
0.0010127264820325008
0.001007215045395589
0.0010209936369878683
0.0008914748760204465
0.0007040860303654528
0.0006847960021362622
0.0007564446784161128
0.000985169298847943
0.001489465751125352
0.002230753978789959
0.002980309361409933
0.0035727887998779273
0.003713330434119172
0.0033468198977645524
0.002773630487525749
0.0021012352178225373
0.0015115114976729984
0.0012662525673304335
0.0011312223697260999
0.0010292607919432355
0.0009961921721217662
0.000960367833981841
0.0009107649042496368
0.0008942305943389022
0.0009162763408865484
0.0009107649042496368
0.0008832077210650791
0.0009162763408865484
0.000960367833981841
0.0009769021438925758
0.000982413580529487
0.00097414642557412
0.0009906807354848547
0.0009658792706187528
0.0009383220874341949
0.0009245434958419158
0.0009548563973449294
0.0009796578622110316
0.0009328106507972832
0.0008776962844281674
0.0008115590447852286
0.0008032918898298613
0.000855650537880521
0.0009024977492942696
0.0009658792706187528
0.0009658792706187528
0.0009300549324788276
0.0009024977492942696
0.0008776962844281674
0.0009135206225680924
0.0009686349889372082
0.00097414642557412
0.0009465892423895617
0.0009355663691157388
0.0009190320592050041
0.0009107649042496368
0.0009658792706187528
0.0010265050736247801
0.0010237493553063243
0.0010017036087586776
0.0009934364538033101
0.000960367833981841
0.0008942305943389022
0.0008776962844281674
0.0008859634393835348
0.000855650537880521
0.0007784904249637591
0.0007895132982375822
0.0009052534676127252
0.0010127264820325008
0.0010733522850385282
0.0010623294117647053
0.0010154822003509568
0.0009686349889372082
0.0008942305943389022
0.0008143147631036844
0.0007288874952315547
0.0007812461432822147
0.0009052534676127252
0.0010017036087586776
0.0010430393835355147
0.001037527946898603
0.0010127264820325008
0.0010099707637140451
0.0009934364538033101
0.0009934364538033101
0.0010540622568093376
0.0010926423132677188
0.0010320165102616916
0.000998947890440222
0.00097414642557412
0.0009190320592050041
0.0008528948195620654
0.0008749405661097116
0.0009190320592050041
0.0009906807354848547
0.0010099707637140451
0.0010017036087586776
0.0009879250171663987
0.000960367833981841
0.0009796578622110316
0.0009879250171663987
0.0009796578622110316
0.0009686349889372082
0.0009769021438925758
0.0009438335240711064
0.0008666734111543443
0.0008198261997405958
0.0008859634393835348
0.000982413580529487
0.0010237493553063243
0.0010044593270771337
0.0009521006790264736
0.0009383220874341949
0.0009548563973449294
0.0009658792706187528
0.0010457951018539703
0.0011146880598153653
0.0010871308766308072
0.0010402836652170589
0.000960367833981841
0.0008528948195620654
0.0008639176928358884
0.0009658792706187528
0.00097414642557412
0.00092178777752346
0.0008666734111543443
0.0008088033264667726
0.0007812461432822147
0.000753688960097657
0.0007812461432822147
0.0007647118333714802
0.0007812461432822147
0.0008005361715114055
0.0007922690165560381
0.0008005361715114055
0.0007647118333714802
0.0007343989318684667
0.0007316432135500107
0.0007454218051422897
0.0006407045090409697
0.0004395370717936973
0.0003816669871061258
0.00048362856488898997
0.0006517273823147929
0.0009879250171663987
0.001607961638818951
0.0023905856412603944
0.0029527521782253753
0.0030932938124666205
0.0027543404592965588
0.002291379781795986
0.0017154346532387268
0.0011312223697260999
0.0007977804531929496
0.0007151089036392759
0.0006269259174486908
0.0006103916075379561
0.0006021244525825888
0.0005718115510795751
0.0006103916075379561
0.0006627502555886161
0.0006599945372701603
0.0006324373540856024
0.0006269259174486908
0.0006544831006332488
0.000687551720454718
0.0006682616922255276
0.0006269259174486908
0.0006048801709010444
0.0006021244525825888
0.0006351930724040583
0.0006655059739070718
0.0006462159456778814
0.0005966130159456772
0.0006159030441748677
0.0006958188754100854
0.0007922690165560381
0.0007812461432822147
0.0006351930724040583
0.0005580329594872961
0.0005332314946211942
0.0005552772411688404
0.000637948790722514
0.0007040860303654528
0.0007316432135500107
0.0006958188754100854
0.0006076358892195001
0.0005663001144426635
0.0006296816357671465
0.0007151089036392759
0.0007840018616006707
0.0008253376363775078
0.000858406256198977
0.0008859634393835348
0.0007950247348744939
0.0006930631570916297
0.0006489716639963371
0.0006407045090409697
0.0005911015793087656
0.0005304757763027383
0.0006186587624933234
0.0007977804531929496
0.0008501391012436096
0.0007895132982375822
0.000679284565499351
0.0006434602273594254
0.0007068417486839086
0.0007564446784161128
0.0007426660868238338
0.0006517273823147929
0.0006296816357671465
0.0007867575799191265
0.0008473833829251538
0.0007757347066453035
0.0006847960021362622
0.0006131473258564118
0.0006214144808117793
0.0006627502555886161
0.000679284565499351
0.0008198261997405958
0.0008336047913328749
0.0008088033264667726
0.0008253376363775078
0.0008363605096513305
0.0007950247348744939
0.0008253376363775078
0.0008418719462882423
0.0008143147631036844
0.000855650537880521
0.0008942305943389022
0.0008005361715114055
0.0007481775234607456
0.0007343989318684667
0.000717864621957732
0.000701330312046997
0.0006627502555886161
0.0007095974670023644
0.0007812461432822147
0.0008391162279697863
0.0008418719462882423
0.0007288874952315547
0.0006985745937285414
0.0007647118333714802
0.0008832077210650791
0.0008859634393835348
0.0007454218051422897
0.0007509332417792012
0.0008528948195620654
0.0009245434958419158
0.0009576121156633854
0.0009328106507972832
0.0008666734111543443
0.0008639176928358884
0.0009052534676127252
0.0008997420309758136
0.0008914748760204465
0.0008776962844281674
0.0009024977492942696
0.0009190320592050041
0.0009052534676127252
0.000896986312657358
0.000908009185931181
0.0008832077210650791
0.0007950247348744939
0.0007867575799191265
0.0007950247348744939
0.0007564446784161128
0.000767467551689936
0.000767467551689936
0.0007895132982375822
0.0008501391012436096
0.0008418719462882423
0.0007343989318684667
0.000687551720454718
0.0007095974670023644
0.0007095974670023644
0.0007068417486839086
0.000701330312046997
0.0006159030441748677
0.0005883458609903097
0.0007399103685053779
0.000998947890440222
0.0014095499198901345
0.001938647837033645
0.002776386205844204
0.00274056186770428
0.002379562767986571
0.0019166020904859992
0.0014701757228961615
0.0011119323414969095
0.0009052534676127252
0.0008446276646066979
0.0008776962844281674
0.000949344960708018
0.0009328106507972832
0.0008832077210650791
0.0007840018616006707
0.0007729789883268476
0.0008363605096513305
0.0008253376363775078
0.0008005361715114055
0.0008391162279697863
0.0008942305943389022
0.0008611619745174325
0.0007922690165560381
0.0007840018616006707
0.0008473833829251538
0.0008942305943389022
0.0008887191577019906
0.0008749405661097116
0.000908009185931181
0.0009245434958419158
0.0009355663691157388
0.0009521006790264736
0.00092178777752346
0.0008721848477912556
0.0008391162279697863
0.0008336047913328749
0.0008776962844281674
0.0009631235523002968
0.0009934364538033101
0.0009686349889372082
0.000949344960708018
0.0009355663691157388
0.0009521006790264736
0.0009879250171663987
0.0010320165102616916
0.0010430393835355147
0.0010347722285801472
0.0010265050736247801
0.0009934364538033101
0.000982413580529487
0.000982413580529487
0.0009879250171663987
0.0010099707637140451
0.0010595736934462493
0.0010320165102616916
0.0009934364538033101
0.0010044593270771337
0.0010099707637140451
0.000998947890440222
0.0009438335240711064
0.0008914748760204465
0.0009410778057526506
0.0010127264820325008
0.0010347722285801472
0.001051306538490882
0.0010568179751277937
0.0010430393835355147
0.0010733522850385282
0.0010127264820325008
0.000985169298847943
0.0010017036087586776
0.0010127264820325008
0.0010017036087586776
0.0010017036087586776
0.0010209936369878683
0.0010457951018539703
0.0010705965667200726
0.0010788637216754397
0.0011174437781338207
0.001103665186541542
0.0010265050736247801
0.0009438335240711064
0.0009658792706187528
0.001037527946898603
0.0010788637216754397
0.001128466651407644
0.0011477566796368347
0.0010843751583123511
0.001037527946898603
0.0010733522850385282
0.0011174437781338207
0.0011394895246814672
0.0011394895246814672
0.001125710933089188
0.0011174437781338207
0.0011119323414969095
0.0011146880598153653
0.0011119323414969095
0.0011146880598153653
0.0011394895246814672
0.0011009094682230861
0.0010568179751277937
0.0010540622568093376
0.0011339780880445555
0.0012194053559166852
0.0012524739757381546
0.001224916792553597
0.0012028710460059502
0.0012331839475089635
0.0012800311589227123
0.0013048326237888143
0.0012882983138780798
0.001244206820782787
0.001271764003967345
0.0013020769054703587
0.0012910540321965354
0.001271764003967345
0.0012882983138780798
0.0013075883421072702
0.0012497182574196988
0.0011560238345922017
0.0011229552147707324
0.0011615352712291134
0.0011450009613183788
0.0011587795529106576
0.001205626764324406
0.0012221610742351409
0.0012497182574196988
0.001246962539101243
0.0012359396658274198
0.0011946038910505827
0.0011505123979552907
0.0011532681162737465
0.0011973596093690386
0.001169802426184481
0.0010926423132677188
0.0010761080033569843
0.001169802426184481
0.0013516798352025624
0.0017457475547417404
0.0023354712748912786
0.0029968436713206674
0.0034818500953688863
0.003547987335011825
0.003242102601663233
0.002814966262302585
0.0023492498664835575
0.0018201519493400466
0.0014591528496223384
0.0013434126802471958
0.0013020769054703587
0.0012772754406042562
0.0012827868772411677
0.0013158554970626377
0.001321366933699549
0.0012965654688334468
0.001293809750514991
0.0013158554970626377
0.0012827868772411677
0.0012331839475089635
0.0012524739757381546
0.001285542595559624
0.001324122652018005
0.0013158554970626377
0.0012827868772411677
0.0012194053559166852
0.0012221610742351409
0.0012745197222858006
0.001332389806973372
0.0013847484550240322
0.0013709698634317533
0.001318611215381093
0.0013048326237888143
0.001285542595559624
0.001318611215381093
0.0013957713282978553
0.0013985270466163114
0.001335145525291828
0.0013075883421072702
0.0013654584267948416
0.0014371071030746922
0.0014343513847562366
0.0014398628213931478
0.0014729314412146172
0.0014674200045777057
0.0014205727931639574
0.001379237018387121
0.00135994699015793
0.0013544355535210185
0.0013544355535210185
0.0013819927367055766
0.0013957713282978553
0.0014453742580300595
0.0014949771877622636
0.0014756871595330732
0.0014343513847562366
0.0013875041733424878
0.0013544355535210185
0.0014481299763485153
0.001453641412985427
0.0014040384832532226
0.001379237018387121
0.0013627027084763858
0.0013627027084763858
0.001379237018387121
0.0013930156099793995
0.0013709698634317533
0.0013571912718394743
0.0013461683985656512
0.0013434126802471958
0.0013461683985656512
0.001332389806973372
0.0012910540321965354
0.001321366933699549
0.0014371071030746922
0.0014977329060807197
0.0014619085679407943
0.0014040384832532226
0.0013985270466163114
0.001379237018387121
0.0013489241168841066
0.0013737255817502093
0.001376481300068665
0.0013682141451132974
0.0013875041733424878
0.001401282764934767
0.0014315956664377805
0.0014591528496223384
0.0014453742580300595
0.0013985270466163114
0.0013819927367055766
0.0013875041733424878
0.0014123056382085901
0.0014067942015716782
0.0013930156099793995
0.0013875041733424878
0.0013461683985656512
0.001332389806973372
0.0013847484550240322
0.0014178170748455018
0.0014426185397116034
0.0014426185397116034
0.0013682141451132974
0.0013130997787441814
0.0013737255817502093
0.0014205727931639574
0.0014315956664377805
0.0014674200045777057
0.0014426185397116034
0.0014067942015716782
0.0013737255817502093
0.0013627027084763858
0.0014260842298008686
0.0015032443427176307
0.0015032443427176307
0.0014756871595330732
0.0014784428778515288
0.0014674200045777057
0.0014453742580300595
0.001401282764934767
0.001376481300068665
0.0013682141451132974
0.0013434126802471958
0.0013737255817502093
0.001321366933699549
0.0012690082856488892
0.001271764003967345
0.0012910540321965354
0.0012800311589227123
0.0012882983138780798
0.001321366933699549
0.0013075883421072702
0.0013075883421072702
0.0013268783703364606
0.0013847484550240322
0.0013847484550240322
0.0013268783703364606
0.001205626764324406
0.0010540622568093376
0.0009879250171663987
0.0010926423132677188
0.0012993211871519031
0.0016740988784618896
0.002266578316929884
0.002966530769817654
0.0034818500953688863
0.003619636011291675
0.003368865644312199
0.0029169278400854497
0.0023464941481651015
0.001759526146334019
0.0014260842298008686
0.001321366933699549
0.0013268783703364606
0.00135994699015793
0.0013544355535210185
0.001335145525291828
0.001285542595559624
0.0012359396658274198
0.001205626764324406
0.0011753138628213923
0.0011394895246814672
0.001128466651407644
0.0011532681162737465
0.001224916792553597
0.001271764003967345
0.0012800311589227123
0.0012772754406042562
0.0012221610742351409
0.001205626764324406
0.0011946038910505827
0.0012001153276874944
0.0011946038910505827
0.001167046707866025
0.0011753138628213923
0.0012083824826428621
0.001244206820782787
0.0012221610742351409
0.0011477566796368347
0.0011422452429999228
0.0011918481727321271
0.0012028710460059502
0.0012359396658274198
0.0012800311589227123
0.0012690082856488892
0.0011946038910505827
0.0011615352712291134
0.001180825299458304
0.0011890924544136717
0.0012331839475089635
0.0012497182574196988
0.0012221610742351409
0.0011973596093690386
0.0012083824826428621
0.0011890924544136717
0.0011753138628213923
0.0011615352712291134
0.0011587795529106576
0.001167046707866025
0.0011725581445029367
0.0011642909895475692
0.0011339780880445555
0.0011312223697260999
0.0011312223697260999
0.0011477566796368347
0.001180825299458304
0.001169802426184481
0.0011450009613183788
0.0011312223697260999
0.0011394895246814672
0.001136733806363011
0.001128466651407644
0.0011422452429999228
0.0011422452429999228
0.0011146880598153653
0.0011477566796368347
0.0012001153276874944
0.0011890924544136717
0.0011725581445029367
0.0011615352712291134
0.0011560238345922017
0.0011422452429999228
0.0011119323414969095
0.0011146880598153653
0.0011505123979552907
0.0011394895246814672
0.001125710933089188
0.0011201994964522765
0.0011064209048599978
0.0010761080033569843
0.001037527946898603
0.0010209936369878683
0.0010292607919432355
0.0010292607919432355
0.0010540622568093376
0.0010843751583123511
0.0011091766231784534
0.0010816194399938957
0.0010595736934462493
0.0010347722285801472
0.0010320165102616916
0.0010292607919432355
0.0010292607919432355
0.0010430393835355147
0.0010623294117647053
0.0010761080033569843
0.0010705965667200726
0.0011064209048599978
0.0011064209048599978
0.0010595736934462493
0.001037527946898603
0.0010430393835355147
0.0010595736934462493
0.0010540622568093376
0.0010623294117647053
0.0010981537499046305
0.0011394895246814672
0.001169802426184481
0.001167046707866025
0.0011532681162737465
0.001125710933089188
0.0011146880598153653
0.0010761080033569843
0.0010843751583123511
0.0011174437781338207
0.0011119323414969095
0.0010568179751277937
0.0010154822003509568
0.0010099707637140451
0.0010127264820325008
0.0009934364538033101
0.0009934364538033101
0.000982413580529487
0.0009548563973449294
0.000960367833981841
0.0009906807354848547
0.0009906807354848547
0.0009934364538033101
0.0009686349889372082
0.0009300549324788276
0.0009355663691157388
0.0009686349889372082
0.0009245434958419158
0.0008308490730144192
0.0007068417486839086
0.000701330312046997
0.0007922690165560381
0.0009769021438925758
0.0014398628213931478
0.002117769527733272
0.0027929205157549396
0.003186988235294117
0.0031649424887464704
0.0028122105439841298
0.0023464941481651015
0.0018146405127031347
0.0013709698634317533
0.0011064209048599978
0.00097414642557412
0.0009245434958419158
0.000908009185931181
0.0009107649042496368
0.0009107649042496368
0.0008749405661097116
0.0008473833829251538
0.000858406256198977
0.0008473833829251538
0.00081707048142214
0.0008280933546959632
0.0008611619745174325
0.0008804520027466232
0.0008804520027466232
0.000858406256198977
0.0008528948195620654
0.0008473833829251538
0.0008528948195620654
0.0008611619745174325
0.000855650537880521
0.000855650537880521
0.0008528948195620654
0.0008391162279697863
0.0008280933546959632
0.00081707048142214
0.0008391162279697863
0.0008666734111543443
0.0008666734111543443
0.0008611619745174325
0.0008639176928358884
0.0008391162279697863
0.000806047608148317
0.0007977804531929496
0.0007922690165560381
0.0008280933546959632
0.000908009185931181
0.0009410778057526506
0.0009052534676127252
0.0008887191577019906
0.0009245434958419158
0.0009521006790264736
0.0009162763408865484
0.0008859634393835348
0.0008859634393835348
0.0008776962844281674
0.0008859634393835348
0.0008887191577019906
0.0008721848477912556
0.0009052534676127252
0.0009245434958419158
0.0009107649042496368
0.00092178777752346
0.0008914748760204465
0.000858406256198977
0.0008749405661097116
0.0009245434958419158
0.000949344960708018
0.0009190320592050041
0.0009024977492942696
0.0008832077210650791
0.0008749405661097116
0.0009410778057526506
0.001007215045395589
0.0010237493553063243
0.000998947890440222
0.001007215045395589
0.0009961921721217662
0.000949344960708018
0.0009521006790264736
0.000971390707255664
0.0009631235523002968
0.0009383220874341949
0.0009410778057526506
0.0009383220874341949
0.0009162763408865484
0.0008859634393835348
0.000855650537880521
0.0008832077210650791
0.0009190320592050041
0.0009272992141603715
0.0009190320592050041
0.0009162763408865484
0.0008721848477912556
0.0008473833829251538
0.0008528948195620654
0.0008666734111543443
0.0009107649042496368
0.0009052534676127252
0.0008832077210650791
0.000855650537880521
0.0008473833829251538
0.0008749405661097116
0.000896986312657358
0.0008721848477912556
0.0008336047913328749
0.0008198261997405958
0.0008639176928358884
0.0009300549324788276
0.000960367833981841
0.0009465892423895617
0.0009465892423895617
0.0009300549324788276
0.00092178777752346
0.0009272992141603715
0.0009410778057526506
0.0009879250171663987
0.0010044593270771337
0.0010044593270771337
0.000985169298847943
0.0009631235523002968
0.0009410778057526506
0.0009135206225680924
0.0009024977492942696
0.0008859634393835348
0.0008473833829251538
0.0008473833829251538
0.0008446276646066979
0.0008280933546959632
0.0008336047913328749
0.0008804520027466232
0.000908009185931181
0.0009383220874341949
0.0009135206225680924
0.0008859634393835348
0.0009052534676127252
0.0009300549324788276
0.0009438335240711064
0.0009052534676127252
0.0008666734111543443
0.0008446276646066979
0.0008225819180590517
0.0007316432135500107
0.0006103916075379561
0.0006076358892195001
0.000676528847180895
0.000896986312657358
0.001401282764934767
0.001993762203402761
0.0026055316700999455
0.0029968436713206674
0.0028948820935378035
0.002453967162584877
0.002002029358358128
0.0015115114976729984
0.0011725581445029367
0.0010678408484016168
0.0009879250171663987
0.0009631235523002968
0.000960367833981841
0.0009107649042496368
0.0008832077210650791
0.0008088033264667726
0.0008143147631036844
0.0008528948195620654
0.00081707048142214
0.0007702232700083917
0.0007977804531929496
0.0008446276646066979
0.0008721848477912556
0.0008446276646066979
0.0008666734111543443
0.0008639176928358884
0.0008639176928358884
0.0008694291294728002
0.0008639176928358884
0.0008914748760204465
0.0008749405661097116
0.0008776962844281674
0.0008694291294728002
0.0008528948195620654
0.000858406256198977
0.0009052534676127252
0.0009465892423895617
0.0009272992141603715
0.0009024977492942696
0.0009300549324788276
0.0009410778057526506
0.0009052534676127252
0.0008528948195620654
0.0008446276646066979
0.0008721848477912556
0.0008804520027466232
0.0009024977492942696
0.0009052534676127252
0.0008859634393835348
0.0008914748760204465
0.000908009185931181
0.000908009185931181
0.0009438335240711064
0.000960367833981841
0.00092178777752346
0.0009024977492942696
0.0009135206225680924
0.0009162763408865484
0.0009052534676127252
0.0008997420309758136
0.0008832077210650791
0.0008391162279697863
0.0008336047913328749
0.0008749405661097116
0.000896986312657358
0.0008887191577019906
0.0009024977492942696
0.0009190320592050041
0.0009052534676127252
0.0009135206225680924
0.0009190320592050041
0.000908009185931181
0.0008832077210650791
0.0009024977492942696
0.0009245434958419158
0.0009107649042496368
0.000949344960708018
0.0009576121156633854
0.0009162763408865484
0.0008942305943389022
0.0008887191577019906
0.0009272992141603715
0.0009135206225680924
0.0009190320592050041
0.0008997420309758136
0.0008832077210650791
0.0009245434958419158
0.000960367833981841
0.000908009185931181
0.0008887191577019906
0.0008804520027466232
0.0008887191577019906
0.0009328106507972832
0.0009548563973449294
0.0009658792706187528
0.000960367833981841
0.0009631235523002968
0.0009548563973449294
0.0009383220874341949
0.0009162763408865484
0.0008942305943389022
0.0008942305943389022
0.0009024977492942696
0.0009410778057526506
0.0009548563973449294
0.0009686349889372082
0.0009576121156633854
0.0009300549324788276
0.0008887191577019906
0.0008997420309758136
0.0009107649042496368
0.0009300549324788276
0.000998947890440222
0.0010650851300831607
0.0010981537499046305
0.0010816194399938957
0.0010540622568093376
0.0010402836652170589
0.000971390707255664
0.0008832077210650791
0.0009052534676127252
0.0009355663691157388
0.0009135206225680924
0.0008749405661097116
0.000908009185931181
0.0009438335240711064
0.000908009185931181
0.0009052534676127252
0.000949344960708018
0.0009355663691157388
0.0008804520027466232
0.0008115590447852286
0.00081707048142214
0.0008721848477912556
0.0009658792706187528
0.0009796578622110316
0.0009245434958419158
0.0008528948195620654
0.0008005361715114055
0.0007757347066453035
0.0007095974670023644
0.0006296816357671465
0.000687551720454718
0.0007702232700083917
0.00097414642557412
0.001423328511482413
0.002677180346379796
0.0029747979247730207
0.0028811035019455236
0.00251734868390936
0.00211225809109636
0.0016272516670481415
0.0012083824826428621
0.0010209936369878683
0.0009272992141603715
0.0008666734111543443
0.000896986312657358
0.0009052534676127252
0.0008776962844281674
0.0008501391012436096
0.0008776962844281674
0.0008804520027466232
0.0008225819180590517
0.0008115590447852286
0.0008473833829251538
0.0009107649042496368
0.0009272992141603715
0.000896986312657358
0.0008721848477912556
0.000858406256198977
0.0008804520027466232
0.0009024977492942696
0.0008887191577019906
0.0008721848477912556
0.0009190320592050041
0.0009245434958419158
0.0009162763408865484
0.0009052534676127252
0.0008694291294728002
0.0008446276646066979
0.0008308490730144192
0.0008336047913328749
0.0008418719462882423
0.0008363605096513305
0.0008363605096513305
0.0008418719462882423
0.0008942305943389022
0.000908009185931181
0.0009135206225680924
0.0009796578622110316
0.000985169298847943
0.0009328106507972832
0.0008611619745174325
0.0008115590447852286
0.0008115590447852286
0.0008749405661097116
0.0009135206225680924
0.0009024977492942696
0.000896986312657358
0.0009107649042496368
0.0008887191577019906
0.0009024977492942696
0.0009686349889372082
0.0009658792706187528
0.0009135206225680924
0.0009328106507972832
0.0009438335240711064
0.0009162763408865484
0.000855650537880521
0.0008694291294728002
0.0009107649042496368
0.0009024977492942696
0.0008997420309758136
0.0009190320592050041
0.0009934364538033101
0.0010099707637140451
0.0009631235523002968
0.0009686349889372082
0.0009465892423895617
0.0009107649042496368
0.0009272992141603715
0.0009245434958419158
0.0008611619745174325
0.0008473833829251538
0.0008473833829251538
0.0008418719462882423
0.0008528948195620654
0.0008666734111543443
0.00092178777752346
0.0009521006790264736
0.0008528948195620654
0.0008032918898298613
0.0007729789883268476
0.000806047608148317
0.0008721848477912556
0.0008611619745174325
0.0008198261997405958
0.0008363605096513305
0.0008749405661097116
0.0008721848477912556
0.0008115590447852286
0.0007619561150530243
0.0007619561150530243
0.00081707048142214
0.0008418719462882423
0.0008473833829251538
0.0008280933546959632
0.0007840018616006707
0.0008032918898298613
0.0008446276646066979
0.0008225819180590517
0.0008115590447852286
0.0008473833829251538
0.0009135206225680924
0.0008776962844281674
0.0008143147631036844
0.0008280933546959632
0.0008749405661097116
0.0009162763408865484
0.000908009185931181
0.0008942305943389022
0.0009162763408865484
0.0009410778057526506
0.0008997420309758136
0.0008914748760204465
0.0009410778057526506
0.000908009185931181
0.0007867575799191265
0.0007647118333714802
0.0007977804531929496
0.0007592003967345686
0.0007316432135500107
0.0007757347066453035
0.0008639176928358884
0.0009383220874341949
0.0009245434958419158
0.0008528948195620654
0.00081707048142214
0.000767467551689936
0.0007343989318684667
0.0007812461432822147
0.0008363605096513305
0.0008694291294728002
0.0007840018616006707
0.0006048801709010444
0.0005001628747997245
0.0006544831006332488
0.000896986312657358
0.0011642909895475692
0.001580404455634393
0.0021591053025101082
0.002690958937972075
0.002867324910353245
0.0026468674448767828
0.002219731105516136
0.0017870833295185766
0.0013654584267948416
0.0010595736934462493
0.0009383220874341949
0.000908009185931181
0.0009052534676127252
0.0009024977492942696
0.0008804520027466232
0.0008501391012436096
0.0008336047913328749
0.0008363605096513305
0.0008253376363775078
0.0008336047913328749
0.0007895132982375822
0.0007840018616006707
0.0008391162279697863
0.0009052534676127252
0.0008914748760204465
0.0008198261997405958
0.0007702232700083917
0.0008005361715114055
0.0008391162279697863
0.0008611619745174325
0.0008528948195620654
0.0008666734111543443
0.0009190320592050041
0.0009328106507972832
0.0009107649042496368
0.0008887191577019906
0.0008418719462882423
0.0008363605096513305
0.0008859634393835348
0.00092178777752346
0.0009024977492942696
0.0008942305943389022
0.0008832077210650791
0.0008776962844281674
0.0009107649042496368
0.0009438335240711064
0.0009576121156633854
0.0009521006790264736
0.0009548563973449294
0.0009465892423895617
0.0009576121156633854
0.0009548563973449294
0.0009686349889372082
0.000998947890440222
0.0009383220874341949
0.0009355663691157388
0.0009162763408865484
0.0009576121156633854
0.0010292607919432355
0.0010540622568093376
0.001037527946898603
0.0010099707637140451
0.0010099707637140451
0.000985169298847943
0.0009631235523002968
0.0009961921721217662
0.0010402836652170589
0.0010568179751277937
0.0010320165102616916
0.00097414642557412
0.0009465892423895617
0.000960367833981841
0.0009658792706187528
0.0009796578622110316
0.000998947890440222
0.0009796578622110316
0.0009934364538033101
0.0009769021438925758
0.0009658792706187528
0.000982413580529487
0.000982413580529487
0.0009272992141603715
0.0009245434958419158
0.0009658792706187528
0.0009686349889372082
0.0008942305943389022
0.0008721848477912556
0.0008804520027466232
0.0008832077210650791
0.0009162763408865484
0.0009272992141603715
0.0008639176928358884
0.0007757347066453035
0.0007702232700083917
0.0008143147631036844
0.0008418719462882423
0.0008143147631036844
0.0008253376363775078
0.0008721848477912556
0.0008776962844281674
0.0008336047913328749
0.0008198261997405958
0.000855650537880521
0.000855650537880521
0.0008308490730144192
0.0008115590447852286
0.0008088033264667726
0.0008198261997405958
0.0008308490730144192
0.0008666734111543443
0.0008528948195620654
0.0008198261997405958
0.000806047608148317
0.0007564446784161128
0.000767467551689936
0.0008473833829251538
0.0009272992141603715
0.0009631235523002968
0.0009245434958419158
0.0008501391012436096
0.0008280933546959632
0.0007812461432822147
0.0007592003967345686
0.0007950247348744939
0.0007950247348744939
0.0007343989318684667
0.0007095974670023644
0.0007399103685053779
0.000753688960097657
0.0007068417486839086
0.0007233760585946433
0.0007399103685053779
0.0006985745937285414
0.000701330312046997
0.0007399103685053779
0.0007399103685053779
0.000679284565499351
0.0006407045090409697
0.0006214144808117793
0.0006269259174486908
0.0006048801709010444
0.0005139414663920035
0.0004505599450675205
0.000469849973296711
0.0005580329594872961
0.0007068417486839086
0.0010402836652170589
0.001602450202182039
0.0022472882887006936
0.00274056186770428
0.0029169278400854497
0.0026826917830167084
0.002219731105516136
0.001671343160143434
0.0011146880598153653
0.0007812461432822147
0.0006958188754100854
0.0006655059739070718
0.0006351930724040583
0.0006214144808117793
0.0006269259174486908
0.0006103916075379561
0.0005938572976272215
0.0005883458609903097
0.0005938572976272215
0.0005938572976272215
0.0005690558327611192
0.0005911015793087656
0.000637948790722514
0.0006159030441748677
0.0005249643396658268
0.0005001628747997245
0.0005111857480735478
0.0005139414663920035
0.0005332314946211942
0.0005442543678950173
0.0005828344243533982
0.0006048801709010444
0.0005773229877164866
0.0005745672693980309
0.0005938572976272215
0.0005911015793087656
0.0005883458609903097
0.0005745672693980309
0.0006048801709010444
0.0006159030441748677
0.0006351930724040583
0.0006572388189517045
0.0006269259174486908
0.000585590142671854
0.0005966130159456772
0.0006434602273594254
0.0006682616922255276
0.000637948790722514
0.0006241701991302349
0.0006351930724040583
0.0006296816357671465
0.0006407045090409697
0.000676528847180895
0.000679284565499351
0.0006710174105439835
0.0006572388189517045
0.0006599945372701603
0.0006627502555886161
0.0006572388189517045
0.0006296816357671465
0.0006269259174486908
0.0006737731288624392
0.0006820402838178067
0.000676528847180895
0.0006655059739070718
0.0006627502555886161
0.0006847960021362622
0.000701330312046997
0.000701330312046997
0.0006958188754100854
0.0006820402838178067
0.0006930631570916297
0.0007068417486839086
0.0006930631570916297
0.000701330312046997
0.000701330312046997
0.000717864621957732
0.0007040860303654528
0.0006599945372701603
0.0006351930724040583
0.0006186587624933234
0.0006159030441748677
0.0006021244525825888
0.0005883458609903097
0.0005773229877164866
0.0005828344243533982
0.0005773229877164866
0.0005525215228503846
0.0005332314946211942
0.0005442543678950173
0.0005277200579842825
0.00048362856488898997
0.0004808728465705341
0.0005056743114366363
0.0005139414663920035
0.0004974071564812689
0.0004891400015259016
0.0004974071564812689
0.0005111857480735478
0.0005029185931181804
0.0004891400015259016
0.000508430029755092
0.0005332314946211942
0.000508430029755092
0.0004670942549782553
0.0004781171282520784
0.0005029185931181804
0.0005304757763027383
0.0005387429312581057
0.0005497658045319286
0.0005442543678950173
0.000508430029755092
0.0005029185931181804
0.0005222086213473709
0.0005442543678950173
0.0005718115510795751
0.0005911015793087656
0.0005718115510795751
0.0005332314946211942
0.0005304757763027383
0.0005525215228503846
0.0005718115510795751
0.0005635443961242077
0.000560788677805752
0.000547010086213473
0.0005139414663920035
0.0004863842832074457
0.0004670942549782553
0.0004533156633859763
0.0004505599450675205
0.0004340256351567857
0.00041197988860913943
0.0003982012970168605
0.0004009570153353164
0.0003954455786984048
0.00041197988860913943
0.00043126991683832994
0.00042575848020141833
0.00042575848020141833
0.00041749132524605104
0.0004064684519722279
0.000392689860379949
0.0003623769588769353
0.0002493925078202481
0.00013916377508201656
0.00020254529640649968
0.0003844227054245816
0.000676528847180895
0.0011835810177767598
0.001842197695887693
0.002365784176394292
0.0025090815289539933
0.0022803569085221628
0.0018477091325246043
0.0013902598916609437
0.0009438335240711064
0.0006407045090409697
0.000508430029755092
0.0004422927901121532
0.0004367813534752416
0.00042024704356450677
0.0004064684519722279
0.0003816669871061258
0.0003568655222400236
0.00035135408560311223
0.00036788839551384685
0.00036788839551384685
0.00036788839551384685
0.0003844227054245816
0.00037891126878767
0.00036788839551384685
0.0003430869306477448
0.00035410980392156795
0.0003430869306477448
0.00032379690241855427
0.00035410980392156795
0.00037891126878767
0.00037064411383230263
0.00036788839551384685
0.00035410980392156795
0.0003568655222400236
0.0003733998321507585
0.00037064411383230263
0.0003568655222400236
0.0003348197756923775
0.00032655262073701005
0.00034584264896620056
0.00036788839551384685
0.00037891126878767
0.00037615555046921414
0.0003623769588769353
0.000340331212329289
0.000315529747463187
0.00032379690241855427
0.0003596212405584795
0.00035410980392156795
0.00035135408560311223
0.0003568655222400236
0.00035410980392156795
0.00035135408560311223
0.00035135408560311223
0.0003348197756923775
0.0003485983672846564
0.00037064411383230263
0.00036788839551384685
0.00035410980392156795
0.0003485983672846564
0.0003375754940108332
0.0003293083390554659
0.0003375754940108332
0.0003348197756923775
0.00034584264896620056
0.000365132677195391
0.0003596212405584795
0.00034584264896620056
0.00032655262073701005
0.00033206405737392166
0.00035135408560311223
0.00035410980392156795
0.0003430869306477448
0.0003375754940108332
0.0003348197756923775
0.000340331212329289
0.00034584264896620056
0.0003375754940108332
0.00032104118410009855
0.00032104118410009855
0.0003127740291447311
0.0002934840009155406
0.0002824611276417174
0.0002686825360494386
0.0002686825360494386
0.0002686825360494386
0.00024663678950179223
0.0002218353246356902
0.0002218353246356902
0.0002135681696803228
0.0001970338597695881
0.0002135681696803228
0.00020805673304341124
0.0001970338597695881
0.00024663678950179223
0.0002686825360494386
0.00024663678950179223
0.0002383696345464249
0.00026041538109407124
0.0002769496910048059
0.0002824611276417174
0.000263171099412527
0.000263171099412527
0.000263171099412527
0.00024663678950179223
0.0002549039444571596
0.00026041538109407124
0.000301751155870908
0.0003430869306477448
0.0003375754940108332
0.0003072625925078196
0.00031001831082627527
0.0003375754940108332
0.0003596212405584795
0.00042575848020141833
0.0004615828183413437
0.0004588271000228878
0.0004422927901121532
0.00042575848020141833
0.00042300276188296266
0.0004450485084306089
0.0004478042267490647
0.0004478042267490647
0.00043126991683832994
0.0003982012970168605
0.0003954455786984048
0.00038717842374303736
0.00037615555046921414
0.00038717842374303736
0.0004064684519722279
0.00041749132524605104
0.00041197988860913943
0.00038717842374303736
0.00036788839551384685
0.000365132677195391
0.0003844227054245816
0.00038717842374303736
0.00037615555046921414
0.00038717842374303736
0.0004092241702906837
0.00042300276188296266
0.0003568655222400236
0.00023010247959105753
0.0001253851834897376
0.00015294236667429551
0.0002576596627756154
0.000508430029755092
0.0010292607919432355
0.0017071674982833593
0.0022638225986114278
0.0024264099794003196
0.002161861020828564
0.001720946089875638
0.0008363605096513305
0.0005938572976272215
0.0005029185931181804
0.0004588271000228878
0.0004726056916151668
0.0004505599450675205
0.0004092241702906837
0.00037891126878767
0.0003623769588769353
0.0003430869306477448
0.0003568655222400236
0.000365132677195391
0.0003623769588769353
0.0003844227054245816
0.00041197988860913943
0.0004340256351567857
0.00042300276188296266
0.00040371273365377215
0.00041749132524605104
0.00042024704356450677
0.00041749132524605104
0.00043126991683832994
0.0004422927901121532
0.0004726056916151668
0.0004863842832074457
0.0004891400015259016
0.0005001628747997245
0.0005166971847104594
0.0005056743114366363
0.0005166971847104594
0.0005249643396658268
0.0005222086213473709
0.000547010086213473
0.0005635443961242077
0.0005773229877164866
0.000585590142671854
0.000585590142671854
0.0005966130159456772
0.000585590142671854
0.0005828344243533982
0.0006131473258564118
0.0006599945372701603
0.0006462159456778814
0.000637948790722514
0.0006517273823147929
0.0006517273823147929
0.0006544831006332488
0.0006958188754100854
0.000717864621957732
0.0007068417486839086
0.0007040860303654528
0.0007343989318684667
0.0007729789883268476
0.0007812461432822147
0.0007784904249637591
0.0007509332417792012
0.0007399103685053779
0.0007316432135500107
0.0007454218051422897
0.0007729789883268476
0.0007729789883268476
0.0007702232700083917
0.0007647118333714802
0.0007922690165560381
0.0008143147631036844
0.0007729789883268476
0.0007812461432822147
0.0007702232700083917
0.0007481775234607456
0.0007481775234607456
0.0007509332417792012
0.0007233760585946433
0.0007040860303654528
0.0006627502555886161
0.0006572388189517045
0.0006682616922255276
0.0006351930724040583
0.0006131473258564118
0.000599368734264133
0.0006186587624933234
0.0006131473258564118
0.0005938572976272215
0.0006076358892195001
0.0005966130159456772
0.000585590142671854
0.000585590142671854
0.0006159030441748677
0.0006544831006332488
0.0006407045090409697
0.0006103916075379561
0.0005911015793087656
0.0006048801709010444
0.0005911015793087656
0.0005911015793087656
0.0006021244525825888
0.0006131473258564118
0.0006351930724040583
0.0006434602273594254
0.0006351930724040583
0.0006434602273594254
0.0006489716639963371
0.0006655059739070718
0.0006682616922255276
0.0006351930724040583
0.0006296816357671465
0.0006627502555886161
0.0006930631570916297
0.0007399103685053779
0.0007729789883268476
0.0007702232700083917
0.0007426660868238338
0.0006930631570916297
0.0007095974670023644
0.0007233760585946433
0.0007371546501869223
0.000767467551689936
0.0007592003967345686
0.0007123531853208202
0.0006958188754100854
0.0006958188754100854
0.0006820402838178067
0.000679284565499351
0.0006737731288624392
0.0006407045090409697
0.0006489716639963371
0.0006930631570916297
0.000687551720454718
0.0006820402838178067
0.0006655059739070718
0.000637948790722514
0.0006737731288624392
0.0006517273823147929
0.0006241701991302349
0.0006021244525825888
0.000547010086213473
0.000456071381704432
0.0004450485084306089
0.0005828344243533982
0.0008721848477912556
0.0013709698634317533
0.0020433651331349654
0.0026413560082398715
0.0028480348821240545
0.002663401754787517
0.002219731105516136
0.0017457475547417404
0.0012800311589227123
0.0009245434958419158
0.0007840018616006707
0.0007426660868238338
0.0007123531853208202
0.0007123531853208202
0.0006930631570916297
0.0006599945372701603
0.000687551720454718
0.0007095974670023644
0.0007068417486839086
0.0006985745937285414
0.000676528847180895
0.0006544831006332488
0.0006544831006332488
0.0006820402838178067
0.0007095974670023644
0.0007068417486839086
0.0007151089036392759
0.0007233760585946433
0.0006737731288624392
0.0006462159456778814
0.0006930631570916297
0.0007316432135500107
0.0007206203402761877
0.0007206203402761877
0.0007316432135500107
0.0007592003967345686
0.0007840018616006707
0.0007757347066453035
0.0007619561150530243
0.0007564446784161128
0.0007454218051422897
0.0007426660868238338
0.0007371546501869223
0.0007151089036392759
0.0007481775234607456
0.0007729789883268476
0.0007812461432822147
0.0008032918898298613
0.0008225819180590517
0.0008115590447852286
0.0007481775234607456
0.0007233760585946433
0.0007784904249637591
0.00081707048142214
0.0008253376363775078
0.0008253376363775078
0.0007840018616006707
0.0007702232700083917
0.0008115590447852286
0.00081707048142214
0.000806047608148317
0.0007812461432822147
0.0007922690165560381
0.0008336047913328749
0.0008666734111543443
0.0008418719462882423
0.0008143147631036844
0.0008363605096513305
0.0008528948195620654
0.0008611619745174325
0.0008418719462882423
0.0008391162279697863
0.0008666734111543443
0.0008832077210650791
0.0008391162279697863
0.0007895132982375822
0.0007895132982375822
0.0007922690165560381
0.0008088033264667726
0.0008088033264667726
0.0007977804531929496
0.0007564446784161128
0.0007095974670023644
0.0006930631570916297
0.0006710174105439835
0.0006655059739070718
0.0006462159456778814
0.0006296816357671465
0.0006627502555886161
0.000687551720454718
0.0006682616922255276
0.0006351930724040583
0.0006324373540856024
0.000637948790722514
0.0006489716639963371
0.0006682616922255276
0.0006682616922255276
0.0006296816357671465
0.0005911015793087656
0.0006076358892195001
0.0006214144808117793
0.0006351930724040583
0.0006572388189517045
0.0006682616922255276
0.0006517273823147929
0.0006517273823147929
0.0006296816357671465
0.0005828344243533982
0.0005745672693980309
0.0006324373540856024
0.0006489716639963371
0.000585590142671854
0.0006076358892195001
0.0006737731288624392
0.0006655059739070718
0.000687551720454718
0.0006985745937285414
0.0007068417486839086
0.0007261317769130989
0.0007343989318684667
0.0007123531853208202
0.0006903074387731741
0.0006820402838178067
0.000679284565499351
0.000679284565499351
0.0006682616922255276
0.0006599945372701603
0.0006434602273594254
0.000599368734264133
0.0005883458609903097
0.0006048801709010444
0.0005883458609903097
0.000585590142671854
0.0005745672693980309
0.0005139414663920035
0.000560788677805752
0.0006131473258564118
0.0006241701991302349
0.0006324373540856024
0.0006159030441748677
0.0005883458609903097
0.0005332314946211942
0.0004395370717936973
0.00032104118410009855
0.000392689860379949
0.000637948790722514
0.001103665186541542
0.0017237018081940941
0.0023520055848020127
0.002746073304341191
0.00274056186770428
0.0023905856412603944
0.0018945563439383528
0.0014315956664377805
0.0010044593270771337
0.0007040860303654528
0.000599368734264133
0.0006021244525825888
0.0006434602273594254
0.0006710174105439835
0.0006517273823147929
0.0006214144808117793
0.0005883458609903097
0.0005745672693980309
0.0006131473258564118
0.0006131473258564118
0.0005800787060349425
0.000560788677805752
0.0005966130159456772
0.0006241701991302349
0.0006462159456778814
0.0006544831006332488
0.0006710174105439835
0.0006572388189517045
0.0006544831006332488
0.000676528847180895
0.0006930631570916297
0.0006958188754100854
0.0006682616922255276
0.0006820402838178067
0.0006930631570916297
0.0006903074387731741
0.0006820402838178067
0.0006958188754100854
0.000753688960097657
0.0007729789883268476
0.0007206203402761877
0.000687551720454718
0.0007151089036392759
0.0007316432135500107
0.0007206203402761877
0.0007592003967345686
0.0007840018616006707
0.000767467551689936
0.0007784904249637591
0.000806047608148317
0.0007840018616006707
0.0007757347066453035
0.0007867575799191265
0.0008005361715114055
0.000806047608148317
0.0008473833829251538
0.0008611619745174325
0.000855650537880521
0.0008473833829251538
0.0008446276646066979
0.0008501391012436096
0.000855650537880521
0.0008198261997405958
0.0007867575799191265
0.0008032918898298613
0.000858406256198977
0.000896986312657358
0.000896986312657358
0.000855650537880521
0.0008528948195620654
0.0009052534676127252
0.0008942305943389022
0.0008776962844281674
0.0008611619745174325
0.0009107649042496368
0.0009686349889372082
0.0009328106507972832
0.0008859634393835348
0.0008528948195620654
0.0008336047913328749
0.0008363605096513305
0.000806047608148317
0.0008032918898298613
0.0007812461432822147
0.0007454218051422897
0.000767467551689936
0.0008005361715114055
0.0008005361715114055
0.0007564446784161128
0.0007095974670023644
0.0006930631570916297
0.000679284565499351
0.0007040860303654528
0.0007784904249637591
0.000806047608148317
0.0007729789883268476
0.0007647118333714802
0.0007784904249637591
0.0007812461432822147
0.0007261317769130989
0.0006930631570916297
0.0007233760585946433
0.0007702232700083917
0.0007784904249637591
0.0007592003967345686
0.0007509332417792012
0.0007647118333714802
0.0007977804531929496
0.0007867575799191265
0.0008115590447852286
0.0008143147631036844
0.0007509332417792012
0.0007399103685053779
0.0007702232700083917
0.0008032918898298613
0.0008363605096513305
0.0008611619745174325
0.0008528948195620654
0.0008611619745174325
0.0008336047913328749
0.0008005361715114055
0.0008225819180590517
0.0007950247348744939
0.0007564446784161128
0.0007564446784161128
0.0007399103685053779
0.000753688960097657
0.0007261317769130989
0.0006930631570916297
0.000701330312046997
0.0007040860303654528
0.0007040860303654528
0.000717864621957732
0.0007288874952315547
0.000701330312046997
0.0007095974670023644
0.0007316432135500107
0.0007343989318684667
0.0007206203402761877
0.0006820402838178067
0.0006103916075379561
0.000508430029755092
0.0004643385366597993
0.0005552772411688404
0.0007592003967345686
0.0010953980315861747
0.001602450202182039
0.0022417768520637815
0.0027212718394750883
0.0027791419241626598
0.0025090815289539933
0.0020571437247272444
0.0015969387655451277
0.0011835810177767598
0.0009107649042496368
0.0008088033264667726
0.0007977804531929496
0.0007812461432822147
0.0007399103685053779
0.000701330312046997
0.0006903074387731741
0.000687551720454718
0.0006930631570916297
0.000676528847180895
0.0006599945372701603
0.0006710174105439835
0.0006682616922255276
0.0006710174105439835
0.0007040860303654528
0.0007206203402761877
0.0006985745937285414
0.0006737731288624392
0.0006820402838178067
0.0006985745937285414
0.0007371546501869223
0.000753688960097657
0.000753688960097657
0.000767467551689936
0.000753688960097657
0.0007261317769130989
0.000701330312046997
0.0007261317769130989
0.000806047608148317
0.0008143147631036844
0.0007977804531929496
0.0007895132982375822
0.0008032918898298613
0.0008418719462882423
0.000858406256198977
0.0008639176928358884
0.000855650537880521
0.0008418719462882423
0.00081707048142214
0.0007619561150530243
0.0007316432135500107
0.0007702232700083917
0.0008446276646066979
0.00092178777752346
0.0009686349889372082
0.0009631235523002968
0.0009521006790264736
0.0009190320592050041
0.0008997420309758136
0.000858406256198977
0.0008721848477912556
0.0008997420309758136
0.0008721848477912556
0.0009272992141603715
0.0009465892423895617
0.000949344960708018
0.0009548563973449294
0.0009410778057526506
0.0009328106507972832
0.0009162763408865484
0.0009135206225680924
0.0009190320592050041
0.0009328106507972832
0.0009272992141603715
0.000908009185931181
0.0008639176928358884
0.0008418719462882423
0.0008446276646066979
0.0008832077210650791
0.000908009185931181
0.0008887191577019906
0.0008391162279697863
0.00081707048142214
0.0007922690165560381
0.0007922690165560381
0.000806047608148317
0.0007867575799191265
0.0007206203402761877
0.000676528847180895
0.0006655059739070718
0.000679284565499351
0.0006930631570916297
0.0007068417486839086
0.0007288874952315547
0.0007040860303654528
0.0007151089036392759
0.0006737731288624392
0.0006710174105439835
0.0006958188754100854
0.0007288874952315547
0.0007399103685053779
0.0007371546501869223
0.0007481775234607456
0.0007371546501869223
0.0007068417486839086
0.0006930631570916297
0.0006985745937285414
0.0006903074387731741
0.0007206203402761877
0.0007399103685053779
0.0007564446784161128
0.0007261317769130989
0.0007123531853208202
0.0007426660868238338
0.0007123531853208202
0.0007564446784161128
0.0008115590447852286
0.0008143147631036844
0.0008032918898298613
0.000806047608148317
0.0008308490730144192
0.0007840018616006707
0.0007454218051422897
0.0007261317769130989
0.0007509332417792012
0.0007619561150530243
0.0007233760585946433
0.0006930631570916297
0.0006627502555886161
0.0006186587624933234
0.0006241701991302349
0.0006737731288624392
0.0006572388189517045
0.000637948790722514
0.000637948790722514
0.0006407045090409697
0.0006572388189517045
0.000676528847180895
0.000679284565499351
0.0006517273823147929
0.0006517273823147929
0.0006186587624933234
0.0004946514381628131
0.0003623769588769353
0.0003485983672846564
0.0004726056916151668
0.0007123531853208202
0.0011753138628213923
0.0017705490196078426
0.0024264099794003196
0.0028232334172579527
0.002781897642481116
0.00239334135957885
0.0019496707103074684
0.0014343513847562366
0.0009438335240711064
0.0007592003967345686
0.0007288874952315547
0.0006599945372701603
0.0006159030441748677
0.0005911015793087656
0.0005718115510795751
0.0005938572976272215
0.0005911015793087656
0.0005800787060349425
0.0005800787060349425
0.000560788677805752
0.000547010086213473
0.0005773229877164866
0.0006021244525825888
0.0005966130159456772
0.000585590142671854
0.0005580329594872961
0.0005773229877164866
0.0005745672693980309
0.0005690558327611192
0.000599368734264133
0.000637948790722514
0.0006296816357671465
0.0006103916075379561
0.0006131473258564118
0.0006351930724040583
0.0006544831006332488
0.0006599945372701603
0.0006655059739070718
0.0006544831006332488
0.0006682616922255276
0.0006930631570916297
0.000701330312046997
0.0006958188754100854
0.000676528847180895
0.0006241701991302349
0.0005938572976272215
0.0006269259174486908
0.0006985745937285414
0.0007481775234607456
0.000753688960097657
0.0007095974670023644
0.0007123531853208202
0.0007509332417792012
0.0007343989318684667
0.0007123531853208202
0.0007261317769130989
0.0007481775234607456
0.000767467551689936
0.0007481775234607456
0.0007068417486839086
0.0007233760585946433
0.0007757347066453035
0.0007619561150530243
0.0007399103685053779
0.0007399103685053779
0.0007426660868238338
0.0007095974670023644
0.0006737731288624392
0.0006489716639963371
0.0006682616922255276
0.0006985745937285414
0.0006903074387731741
0.000637948790722514
0.0006324373540856024
0.0006572388189517045
0.0006572388189517045
0.0006159030441748677
0.0005580329594872961
0.000547010086213473
0.0005304757763027383
0.0004808728465705341
0.00042851419851987416
0.000392689860379949
0.00041197988860913943
0.00040371273365377215
0.0003816669871061258
0.00038993414206149314
0.0004092241702906837
0.0003816669871061258
0.00032655262073701005
0.0003430869306477448
0.0003816669871061258
0.0003623769588769353
0.00034584264896620056
0.00037064411383230263
0.0003844227054245816
0.00036788839551384685
0.00037064411383230263
0.0003430869306477448
0.00032104118410009855
0.0003182854657816428
0.0003375754940108332
0.00037064411383230263
0.00037891126878767
0.000365132677195391
0.0003596212405584795
0.00037064411383230263
0.0004009570153353164
0.00041197988860913943
0.000392689860379949
0.00037891126878767
0.0003844227054245816
0.0004009570153353164
0.0004422927901121532
0.0005249643396658268
0.0005111857480735478
0.0004450485084306089
0.00043126991683832994
0.00041749132524605104
0.00042575848020141833
0.00042024704356450677
0.00040371273365377215
0.0004064684519722279
0.00042851419851987416
0.0003954455786984048
0.0003182854657816428
0.0003072625925078196
0.00031001831082627527
0.00030450687418936376
0.00029072828259708476
0.00027970540932326175
0.00031001831082627527
0.000340331212329289
0.0003623769588769353
0.00035135408560311223
0.0003293083390554659
0.000340331212329289
0.00032655262073701005
0.00029072828259708476
0.00024112535286488067
0.00015845380331120705
8.404940871290084e-05
0.00011987374685282605
0.000508430029755092
0.0009631235523002968
0.0015418243991760121
0.0021260366826886382
0.0024043642328526733
0.00228862406347753
0.001891800625619897
0.0013957713282978553
0.0008804520027466232
0.0005111857480735478
0.00042575848020141833
0.00040371273365377215
0.00037064411383230263
0.00032104118410009855
0.00026592681773098274
0.00024663678950179223
0.0002549039444571596
0.00024112535286488067
0.0002218353246356902
0.00023561391622796914
0.00027143825436789435
0.000263171099412527
0.000263171099412527
0.00029623971923399637
0.000263171099412527
0.0002190796063172344
0.000210812451361867
0.00023010247959105753
0.0003127740291447311
0.0003733998321507585
0.00034584264896620056
0.00030450687418936376
0.0002686825360494386
0.00026592681773098274
0.0002852168459601733
0.00032655262073701005
0.00034584264896620056
0.0003485983672846564
0.0003430869306477448
0.0003375754940108332
0.0003623769588769353
0.0003623769588769353
0.0003568655222400236
0.0003568655222400236
0.0003816669871061258
0.00038993414206149314
0.00035135408560311223
0.0003623769588769353
0.0004064684519722279
0.00043126991683832994
0.00041749132524605104
0.0004450485084306089
0.0004450485084306089
0.00041749132524605104
0.0004340256351567857
0.0005001628747997245
0.0005304757763027383
0.000547010086213473
0.0005745672693980309
0.0005800787060349425
0.0005966130159456772
0.0005938572976272215
0.0005773229877164866
0.0005635443961242077
0.0006076358892195001
0.0006489716639963371
0.000679284565499351
0.000701330312046997
0.0006820402838178067
0.000687551720454718
0.0007123531853208202
0.0006985745937285414
0.000679284565499351
0.000687551720454718
0.0006627502555886161
0.0006517273823147929
0.0006599945372701603
0.0006682616922255276
0.0006296816357671465
0.0005800787060349425
0.0005387429312581057
0.0005166971847104594
0.0005029185931181804
0.0005139414663920035
0.0005635443961242077
0.0005387429312581057
0.0004395370717936973
0.0004064684519722279
0.00043126991683832994
0.00042851419851987416
0.00040371273365377215
0.0003982012970168605
0.00042575848020141833
0.000456071381704432
0.0004615828183413437
0.00043126991683832994
0.0003348197756923775
0.0002852168459601733
0.0003375754940108332
0.00040371273365377215
0.00042300276188296266
0.0004092241702906837
0.00040371273365377215
0.00037891126878767
0.0003816669871061258
0.0003568655222400236
0.00032379690241855427
0.00035410980392156795
0.0003982012970168605
0.000392689860379949
0.00037064411383230263
0.00037064411383230263
0.00038717842374303736
0.00037064411383230263
0.00037891126878767
0.0004395370717936973
0.0004781171282520784
0.0004726056916151668
0.00043126991683832994
0.0003733998321507585
0.000340331212329289
0.0002989954375524522
0.0003072625925078196
0.000340331212329289
0.0003430869306477448
0.00032379690241855427
0.00032104118410009855
0.00032104118410009855
0.0002769496910048059
0.00024663678950179223
0.00027970540932326175
0.00024112535286488067
0.00021632388799877858
0.0001832552681773092
0.0002190796063172344
0.0002989954375524522
0.0002879725642786291
0.00021632388799877858
0.00020530101472495543
0.00018876670481422076
0.00015294236667429551
7.578225375753347e-05
-1.377859159228559e-06
1.2400732433050376e-05
0.00012814090180819342
0.00034584264896620056
0.0007399103685053779
0.0012882983138780798
0.001800861921110856
0.001960693583581292
0.001759526146334019
0.0013875041733424878
0.0010595736934462493
0.0007371546501869223
0.00048362856488898997
0.000340331212329289
0.00025214822613870384
0.00024112535286488067
0.00027143825436789435
0.00024388107118333642
0.0001832552681773092
0.00015845380331120705
0.00015294236667429551
0.00014191949340047234
0.00015018664835583973
0.0001694766765850302
0.00019152242313267648
0.00020805673304341124
0.0002190796063172344
0.00019978957808804387
0.000172232394903486
0.00017774383154039756
0.00020254529640649968
0.00018049954985885336
0.00016120952162966288
0.00016120952162966288
0.00017498811322194178
0.00019152242313267648
0.00019427814145113231
0.00020805673304341124
0.0002135681696803228
0.00024663678950179223
0.0002383696345464249
0.00020805673304341124
0.000210812451361867
0.00020530101472495543
0.0002218353246356902
0.00023010247959105753
0.00019978957808804387
0.000172232394903486
0.000172232394903486
0.0002218353246356902
0.0002852168459601733
0.0003293083390554659
0.0003182854657816428
0.00026592681773098274
0.0002934840009155406
0.0003127740291447311
0.00032379690241855427
0.00032655262073701005
0.00032379690241855427
0.00035410980392156795
0.00037615555046921414
0.00036788839551384685
0.0003816669871061258
0.0004395370717936973
0.0004092241702906837
0.00037891126878767
0.00042024704356450677
0.00042575848020141833
0.000392689860379949
0.0003623769588769353
0.0003816669871061258
0.0004092241702906837
0.00042300276188296266
0.00041749132524605104
0.0004092241702906837
0.00038717842374303736
0.00036788839551384685
0.00035135408560311223
0.0003072625925078196
0.00025214822613870384
0.00022459104295414594
0.00025214822613870384
0.0002686825360494386
0.00023010247959105753
0.00016120952162966288
0.00011711802853437029
0.00010609515526054714
0.00012262946517128183
0.00010609515526054714
4.546935225451981e-05
1.5156450751506162e-05
6.475938048371032e-05
7.02708171206219e-05
2.6179324025329308e-05
2.066788738841773e-05
3.9957915617608246e-05
2.6179324025329308e-05
-4.133577477684346e-06
1.2400732433050376e-05
4.271363393606403e-05
3.720219729915245e-05
1.7912169069961946e-05
1.5156450751506162e-05
5.649222552834297e-05
0.00012814090180819342
0.00016396523994811866
0.00011987374685282605
5.649222552834297e-05
5.098078889143139e-05
7.853797207598924e-05
7.578225375753347e-05
6.200366216525454e-05
5.9247943846798756e-05
6.475938048371032e-05
0.00010333943694209132
0.00015294236667429551
0.00017774383154039756
0.00019978957808804387
0.00019427814145113231
0.00016120952162966288
0.00013365233844510492
0.00014191949340047234
0.00016672095826657444
0.0001556980849927513
0.00011711802853437029
8.404940871290084e-05
2.066788738841773e-05
1.2400732433050376e-05
8.956084534981241e-05
0.00015018664835583973
0.00010609515526054714
4.546935225451981e-05
1.2400732433050376e-05
1.7912169069961946e-05
6.8892957961388014e-06
-4.5469352254521147e-05
-5.6492225528344285e-05
1.3778591592272275e-06
3.9957915617608246e-05
5.9247943846798756e-05
6.200366216525454e-05
3.169076066224089e-05
-8.129369039444639e-05
-0.00017498811322194308
-0.0001336523384451063
-1.377859159228559e-06
0.00020530101472495543
0.0005056743114366363
0.0009521006790264736
0.0013930156099793995
0.0014784428778515288
0.0012414511024643313
0.0008391162279697863
0.00048362856488898997
0.000210812451361867
6.200366216525454e-05
4.82250705729756e-05
9.64501411459459e-06
-4.8225070572976926e-05
