7.30265354390777e-05
7.02708171206219e-05
7.02708171206219e-05
7.578225375753347e-05
7.853797207598924e-05
8.68051270313566e-05
8.956084534981241e-05
9.23165636682682e-05
9.23165636682682e-05
0.00010058371862363556
0.00010885087357900291
0.00010609515526054714
0.00010885087357900291
0.00011711802853437029
0.0001253851834897376
0.0001253851834897376
0.00012814090180819342
0.0001253851834897376
0.00013089662012664922
0.00013640805676356078
0.00014191949340047234
0.00013916377508201656
0.00014191949340047234
0.0001556980849927513
0.00016120952162966288
0.00016120952162966288
0.00015845380331120705
0.00015294236667429551
0.0001556980849927513
0.00015845380331120705
0.00015845380331120705
0.00015018664835583973
0.00014467521171892812
0.00013916377508201656
0.00013916377508201656
0.00013365233844510492
0.0001253851834897376
0.00012262946517128183
0.0001253851834897376
0.00012814090180819342
0.00012262946517128183
0.00011436231021591448
0.00010058371862363556
8.68051270313566e-05
7.853797207598924e-05
6.475938048371032e-05
4.82250705729756e-05
3.444647898069667e-05
2.066788738841773e-05
1.3778591592272275e-06
-2.342360570687485e-05
-4.5469352254521147e-05
-6.475938048371164e-05
-7.85379720759906e-05
-8.404940871290214e-05
-8.404940871290214e-05
-8.404940871290214e-05
-8.680512703135793e-05
-9.231656366826955e-05
-9.507228198672531e-05
-9.507228198672531e-05
-9.507228198672531e-05
-9.78280003051811e-05
-0.00010058371862363688
-9.78280003051811e-05
-9.507228198672531e-05
-9.507228198672531e-05
-9.78280003051811e-05
-9.507228198672531e-05
-8.680512703135793e-05
-8.404940871290214e-05
-8.404940871290214e-05
-8.680512703135793e-05
-8.680512703135793e-05
-8.404940871290214e-05
-7.85379720759906e-05
-7.57822537575348e-05
-7.57822537575348e-05
-7.57822537575348e-05
-7.302653543907902e-05
-6.751509880216745e-05
-6.751509880216745e-05
-6.751509880216745e-05
-7.027081712062322e-05
-7.302653543907902e-05
-6.475938048371164e-05
-6.200366216525588e-05
-6.475938048371164e-05
-6.751509880216745e-05
-6.200366216525588e-05
-5.9247943846800084e-05
-6.200366216525588e-05
-6.751509880216745e-05
-7.027081712062322e-05
-7.027081712062322e-05
-6.475938048371164e-05
-6.751509880216745e-05
-7.027081712062322e-05
-7.302653543907902e-05
-7.57822537575348e-05
-7.027081712062322e-05
-7.302653543907902e-05
-7.57822537575348e-05
-8.129369039444639e-05
-8.680512703135793e-05
-8.404940871290214e-05
-8.129369039444639e-05
-8.404940871290214e-05
-8.680512703135793e-05
-8.956084534981374e-05
-8.404940871290214e-05
-8.680512703135793e-05
-8.680512703135793e-05
-8.956084534981374e-05
-9.231656366826955e-05
-8.956084534981374e-05
-8.404940871290214e-05
-8.680512703135793e-05
-9.231656366826955e-05
-9.507228198672531e-05
-9.78280003051811e-05
-8.956084534981374e-05
-8.129369039444639e-05
-7.85379720759906e-05
-8.956084534981374e-05
-9.507228198672531e-05
-9.507228198672531e-05
-9.78280003051811e-05
-9.507228198672531e-05
-8.956084534981374e-05
-9.78280003051811e-05
-0.00010333943694209268
-0.00010609515526054846
-0.00010609515526054846
-0.00010885087357900426
-0.00010609515526054846
-0.00010058371862363688
-9.231656366826955e-05
-8.956084534981374e-05
-9.78280003051811e-05
-0.00010333943694209268
-0.00010333943694209268
-0.00010333943694209268
-0.00010333943694209268
-0.00010058371862363688
-0.00010058371862363688
-9.78280003051811e-05
-9.78280003051811e-05
-9.78280003051811e-05
-9.507228198672531e-05
-9.78280003051811e-05
-9.78280003051811e-05
-9.507228198672531e-05
-9.507228198672531e-05
-9.78280003051811e-05
-9.507228198672531e-05
-9.231656366826955e-05
-9.231656366826955e-05
-9.231656366826955e-05
-9.231656366826955e-05
-8.956084534981374e-05
-8.956084534981374e-05
-8.956084534981374e-05
-9.231656366826955e-05
-9.507228198672531e-05
-9.507228198672531e-05
-8.956084534981374e-05
-8.680512703135793e-05
-8.680512703135793e-05
-8.956084534981374e-05
-8.956084534981374e-05
-8.680512703135793e-05
-8.404940871290214e-05
-8.680512703135793e-05
-9.231656366826955e-05
-9.507228198672531e-05
-8.956084534981374e-05
-8.680512703135793e-05
-8.956084534981374e-05
-8.680512703135793e-05
-8.680512703135793e-05
-7.57822537575348e-05
-6.751509880216745e-05
-6.751509880216745e-05
-6.751509880216745e-05
-7.027081712062322e-05
-5.6492225528344285e-05
-2.6179324025330647e-05
-4.133577477684346e-06
-1.240073243305171e-05
-3.4446478980697995e-05
-5.098078889143272e-05
-5.6492225528344285e-05
-5.6492225528344285e-05
-5.098078889143272e-05
-4.5469352254521147e-05
-4.8225070572976926e-05
-4.8225070572976926e-05
-6.200366216525588e-05
-8.129369039444639e-05
-8.680512703135793e-05
-8.680512703135793e-05
-8.404940871290214e-05
-8.404940871290214e-05
-8.680512703135793e-05
-8.956084534981374e-05
-9.231656366826955e-05
-8.680512703135793e-05
-8.404940871290214e-05
-8.404940871290214e-05
-8.404940871290214e-05
-8.680512703135793e-05
-8.404940871290214e-05
-8.129369039444639e-05
-8.129369039444639e-05
-8.404940871290214e-05
-8.680512703135793e-05
-9.507228198672531e-05
-0.00012814090180819475
-0.00017498811322194308
-0.00019703385976958942
9.507228198672396e-05
0.00042300276188296266
0.0008363605096513305
0.0012993211871519031
0.0017126789349202708
0.0018118847943846788
0.0015280458075837332
0.001128466651407644
0.0007619561150530243
0.0004367813534752416
0.00016396523994811866
4.271363393606403e-05
2.6179324025329308e-05
1.7912169069961946e-05
1.3778591592272275e-06
-1.5156450751507488e-05
-3.169076066224221e-05
-3.995791561760957e-05
-4.8225070572976926e-05
-5.6492225528344285e-05
-5.9247943846800084e-05
-5.3736507209888505e-05
-5.098078889143272e-05
-5.098078889143272e-05
-5.098078889143272e-05
-5.3736507209888505e-05
-5.098078889143272e-05
-3.995791561760957e-05
-2.8935042343786426e-05
-2.8935042343786426e-05
-3.720219729915378e-05
-3.720219729915378e-05
-3.4446478980697995e-05
-3.169076066224221e-05
-2.342360570687485e-05
-1.5156450751507488e-05
-1.240073243305171e-05
-1.240073243305171e-05
-4.133577477684346e-06
-4.133577477684346e-06
-6.889295796140132e-06
-4.133577477684346e-06
-4.133577477684346e-06
-1.377859159228559e-06
1.3778591592272275e-06
1.3778591592272275e-06
1.3778591592272275e-06
9.64501411459459e-06
1.7912169069961946e-05
1.7912169069961946e-05
2.3423605706873515e-05
2.8935042343785094e-05
3.169076066224089e-05
3.9957915617608246e-05
4.271363393606403e-05
4.546935225451981e-05
4.82250705729756e-05
5.098078889143139e-05
6.200366216525454e-05
6.751509880216611e-05
6.751509880216611e-05
7.02708171206219e-05
7.853797207598924e-05
8.68051270313566e-05
8.956084534981241e-05
9.507228198672396e-05
9.507228198672396e-05
0.00010058371862363556
0.00010609515526054714
0.00010885087357900291
0.00011436231021591448
0.0001253851834897376
0.00013365233844510492
0.00013365233844510492
0.00013089662012664922
0.00012814090180819342
0.0001253851834897376
0.0001253851834897376
0.00013089662012664922
0.00013365233844510492
0.0001253851834897376
0.00011987374685282605
0.00011711802853437029
0.00011711802853437029
0.00011711802853437029
0.00011160659189745871
0.00011160659189745871
0.00011436231021591448
0.00011436231021591448
0.00010885087357900291
9.782800030517979e-05
8.956084534981241e-05
7.853797207598924e-05
6.475938048371032e-05
5.373650720988717e-05
3.444647898069667e-05
1.5156450751506162e-05
-1.377859159228559e-06
-9.64501411459592e-06
-2.342360570687485e-05
-3.995791561760957e-05
-5.098078889143272e-05
-6.200366216525588e-05
-6.475938048371164e-05
-5.9247943846800084e-05
-5.9247943846800084e-05
-6.751509880216745e-05
-7.57822537575348e-05
-7.57822537575348e-05
-7.027081712062322e-05
-6.751509880216745e-05
-7.027081712062322e-05
-7.302653543907902e-05
-6.751509880216745e-05
-6.200366216525588e-05
-6.200366216525588e-05
-6.200366216525588e-05
-6.200366216525588e-05
-5.6492225528344285e-05
-5.3736507209888505e-05
-5.6492225528344285e-05
-5.9247943846800084e-05
-6.200366216525588e-05
-6.200366216525588e-05
-5.6492225528344285e-05
-5.6492225528344285e-05
-5.9247943846800084e-05
-6.200366216525588e-05
-6.475938048371164e-05
-6.475938048371164e-05
-6.200366216525588e-05
-6.751509880216745e-05
-7.027081712062322e-05
-6.751509880216745e-05
-6.475938048371164e-05
-6.751509880216745e-05
-7.027081712062322e-05
-7.302653543907902e-05
-7.027081712062322e-05
-7.027081712062322e-05
-7.027081712062322e-05
-5.9247943846800084e-05
-5.6492225528344285e-05
-5.9247943846800084e-05
-6.200366216525588e-05
-6.475938048371164e-05
-7.027081712062322e-05
-7.85379720759906e-05
-7.85379720759906e-05
-7.57822537575348e-05
-7.85379720759906e-05
-7.85379720759906e-05
-7.85379720759906e-05
-7.85379720759906e-05
-7.302653543907902e-05
-7.302653543907902e-05
-7.57822537575348e-05
-8.129369039444639e-05
-8.129369039444639e-05
-7.57822537575348e-05
-7.57822537575348e-05
-8.129369039444639e-05
-8.680512703135793e-05
-8.956084534981374e-05
-8.404940871290214e-05
-8.129369039444639e-05
-8.129369039444639e-05
-8.404940871290214e-05
-8.680512703135793e-05
-8.129369039444639e-05
-8.129369039444639e-05
-8.404940871290214e-05
-8.956084534981374e-05
-8.956084534981374e-05
-8.680512703135793e-05
-8.404940871290214e-05
-8.129369039444639e-05
-8.404940871290214e-05
-8.680512703135793e-05
-8.956084534981374e-05
-8.680512703135793e-05
-8.404940871290214e-05
-8.404940871290214e-05
-8.956084534981374e-05
-8.956084534981374e-05
-8.680512703135793e-05
-8.680512703135793e-05
-8.956084534981374e-05
-9.231656366826955e-05
-8.956084534981374e-05
-8.680512703135793e-05
-8.404940871290214e-05
-8.680512703135793e-05
-8.956084534981374e-05
-9.507228198672531e-05
-9.507228198672531e-05
-8.956084534981374e-05
-9.231656366826955e-05
-9.507228198672531e-05
-9.231656366826955e-05
-9.231656366826955e-05
-9.507228198672531e-05
-9.78280003051811e-05
-0.00010058371862363688
-0.00010058371862363688
-9.78280003051811e-05
-0.00010058371862363688
-0.00010058371862363688
-0.00010058371862363688
-0.00010058371862363688
-9.78280003051811e-05
-9.78280003051811e-05
-9.78280003051811e-05
-0.00010058371862363688
-9.78280003051811e-05
-9.507228198672531e-05
-9.231656366826955e-05
-9.507228198672531e-05
-9.78280003051811e-05
-9.78280003051811e-05
-9.507228198672531e-05
-9.231656366826955e-05
-9.507228198672531e-05
-9.78280003051811e-05
-0.00010058371862363688
-0.00010058371862363688
-9.507228198672531e-05
-9.507228198672531e-05
-9.78280003051811e-05
-9.78280003051811e-05
-8.956084534981374e-05
-7.85379720759906e-05
-6.751509880216745e-05
-6.200366216525588e-05
-5.9247943846800084e-05
-4.8225070572976926e-05
-2.8935042343786426e-05
-1.7912169069963278e-05
-3.169076066224221e-05
-4.8225070572976926e-05
-5.9247943846800084e-05
-5.6492225528344285e-05
-5.098078889143272e-05
-5.098078889143272e-05
-5.3736507209888505e-05
-5.9247943846800084e-05
-6.751509880216745e-05
-7.85379720759906e-05
-9.231656366826955e-05
-9.231656366826955e-05
-9.231656366826955e-05
-8.956084534981374e-05
-9.231656366826955e-05
-9.78280003051811e-05
-9.78280003051811e-05
-9.78280003051811e-05
-8.956084534981374e-05
-8.404940871290214e-05
-9.231656366826955e-05
-0.00010333943694209268
-0.00010333943694209268
-9.78280003051811e-05
-8.680512703135793e-05
-9.231656366826955e-05
-0.00010058371862363688
-0.00010885087357900426
-0.00015569808499275262
-0.00022459104295414727
-0.00024112535286488197
-0.0001171180285343716
0.00013640805676356078
0.0005194529030289152
0.0009879250171663987
0.0014949771877622636
0.0018256633859769582
0.0017650375829709308
0.0014123056382085901
0.0010265050736247801
0.0006682616922255276
0.00033206405737392166
0.00010885087357900291
4.271363393606403e-05
4.271363393606403e-05
2.8935042343785094e-05
9.64501411459459e-06
-1.5156450751507488e-05
-3.4446478980697995e-05
-3.995791561760957e-05
-4.2713633936065354e-05
-4.8225070572976926e-05
-5.3736507209888505e-05
-5.3736507209888505e-05
-4.8225070572976926e-05
-4.5469352254521147e-05
-4.5469352254521147e-05
-4.5469352254521147e-05
-4.5469352254521147e-05
-3.995791561760957e-05
-3.720219729915378e-05
-3.720219729915378e-05
-3.720219729915378e-05
-3.169076066224221e-05
-2.6179324025330647e-05
-2.342360570687485e-05
-2.066788738841907e-05
-2.066788738841907e-05
-2.066788738841907e-05
-1.240073243305171e-05
-9.64501411459592e-06
-6.889295796140132e-06
-4.133577477684346e-06
-1.377859159228559e-06
1.3778591592272275e-06
6.8892957961388014e-06
6.8892957961388014e-06
9.64501411459459e-06
1.5156450751506162e-05
2.066788738841773e-05
2.3423605706873515e-05
2.3423605706873515e-05
2.3423605706873515e-05
2.3423605706873515e-05
2.8935042343785094e-05
3.9957915617608246e-05
4.271363393606403e-05
4.546935225451981e-05
4.82250705729756e-05
5.098078889143139e-05
6.200366216525454e-05
6.200366216525454e-05
6.200366216525454e-05
6.751509880216611e-05
7.853797207598924e-05
8.404940871290084e-05
8.404940871290084e-05
8.404940871290084e-05
8.404940871290084e-05
9.23165636682682e-05
0.00010058371862363556
0.00010333943694209132
0.00010609515526054714
0.00010609515526054714
0.00011160659189745871
0.00011711802853437029
0.00011987374685282605
0.00011987374685282605
0.00011436231021591448
0.00011436231021591448
0.00011436231021591448
0.00010885087357900291
0.00010609515526054714
0.00010609515526054714
0.00010609515526054714
0.00010609515526054714
0.00010609515526054714
0.00010058371862363556
8.956084534981241e-05
8.68051270313566e-05
8.68051270313566e-05
8.129369039444505e-05
7.30265354390777e-05
6.200366216525454e-05
5.098078889143139e-05
4.546935225451981e-05
2.8935042343785094e-05
6.8892957961388014e-06
-9.64501411459592e-06
-1.7912169069963278e-05
-2.6179324025330647e-05
-4.5469352254521147e-05
-5.9247943846800084e-05
-7.302653543907902e-05
-8.129369039444639e-05
-8.680512703135793e-05
-8.956084534981374e-05
-8.956084534981374e-05
-9.231656366826955e-05
-9.78280003051811e-05
-9.507228198672531e-05
-9.507228198672531e-05
-9.507228198672531e-05
-9.507228198672531e-05
-9.78280003051811e-05
-9.78280003051811e-05
-9.78280003051811e-05
-9.507228198672531e-05
-9.507228198672531e-05
-9.78280003051811e-05
-9.507228198672531e-05
-9.231656366826955e-05
-8.956084534981374e-05
-9.231656366826955e-05
-9.507228198672531e-05
-9.231656366826955e-05
-8.956084534981374e-05
-8.956084534981374e-05
-9.231656366826955e-05
-9.507228198672531e-05
-9.231656366826955e-05
-8.680512703135793e-05
-8.680512703135793e-05
-8.956084534981374e-05
-9.231656366826955e-05
-9.507228198672531e-05
-9.78280003051811e-05
-0.00010058371862363688
-0.00010333943694209268
-0.00010609515526054846
-0.00010885087357900426
-0.00010058371862363688
-8.956084534981374e-05
-8.956084534981374e-05
-0.00010058371862363688
-0.00010333943694209268
-9.231656366826955e-05
-9.78280003051811e-05
-0.00010885087357900426
-0.00011436231021591582
-0.00011436231021591582
-0.00011436231021591582
-0.00011436231021591582
-0.00011436231021591582
-0.00011436231021591582
-0.00011436231021591582
-0.00011160659189746003
-0.00011160659189746003
-0.00011436231021591582
-0.0001171180285343716
-0.0001198737468528274
-0.00011436231021591582
-0.00010885087357900426
-0.00011436231021591582
-0.00011436231021591582
-0.00011436231021591582
-0.00011160659189746003
-0.00010885087357900426
-0.00011160659189746003
-0.00011160659189746003
-0.00011436231021591582
-0.00011160659189746003
-0.00010609515526054846
-0.00010333943694209268
-0.00010885087357900426
-0.00011436231021591582
-0.00010885087357900426
-0.00010609515526054846
-0.00010609515526054846
-0.00010885087357900426
-0.00010885087357900426
-0.00010609515526054846
-0.00010333943694209268
-0.00010058371862363688
-9.78280003051811e-05
-9.507228198672531e-05
-9.78280003051811e-05
-9.78280003051811e-05
-9.507228198672531e-05
-0.00010058371862363688
-0.00010333943694209268
-0.00010333943694209268
-0.00010333943694209268
-0.00010333943694209268
-0.00010609515526054846
-0.00010885087357900426
-0.00010609515526054846
-0.00010333943694209268
-0.00010885087357900426
-0.00010885087357900426
-0.00010609515526054846
-0.00010333943694209268
-9.78280003051811e-05
-9.78280003051811e-05
-9.78280003051811e-05
-9.78280003051811e-05
-9.78280003051811e-05
-9.78280003051811e-05
-9.78280003051811e-05
-0.00010058371862363688
-0.00010058371862363688
-9.78280003051811e-05
-9.507228198672531e-05
-9.78280003051811e-05
-0.00010058371862363688
-0.00010333943694209268
-0.00010058371862363688
-9.78280003051811e-05
-9.78280003051811e-05
-9.507228198672531e-05
-9.507228198672531e-05
-9.507228198672531e-05
-8.956084534981374e-05
-8.680512703135793e-05
-8.956084534981374e-05
-9.231656366826955e-05
-9.507228198672531e-05
-8.680512703135793e-05
-7.302653543907902e-05
-7.027081712062322e-05
-7.85379720759906e-05
-8.404940871290214e-05
-8.129369039444639e-05
-7.302653543907902e-05
-6.475938048371164e-05
-6.200366216525588e-05
-6.200366216525588e-05
-4.5469352254521147e-05
-1.7912169069963278e-05
-1.5156450751507488e-05
-2.6179324025330647e-05
-3.720219729915378e-05
-4.5469352254521147e-05
-4.5469352254521147e-05
-4.2713633936065354e-05
-3.995791561760957e-05
-3.995791561760957e-05
-4.8225070572976926e-05
-5.9247943846800084e-05
-6.751509880216745e-05
-7.027081712062322e-05
-7.302653543907902e-05
-7.57822537575348e-05
-7.57822537575348e-05
-7.57822537575348e-05
-7.85379720759906e-05
-7.85379720759906e-05
-7.57822537575348e-05
-7.027081712062322e-05
-7.027081712062322e-05
-7.027081712062322e-05
-7.027081712062322e-05
-6.475938048371164e-05
-5.9247943846800084e-05
-6.200366216525588e-05
-6.200366216525588e-05
-6.751509880216745e-05
-9.507228198672531e-05
-0.0001391637750820179
-0.0001777438315403989
-0.000150186648355841
-1.5156450751507488e-05
0.00021632388799877858
0.0005690558327611192
0.0010320165102616916
0.0014701757228961615
0.0015666258640421142
0.0012910540321965354
0.0009024977492942696
0.0005966130159456772
0.0003430869306477448
0.00013089662012664922
3.9957915617608246e-05
3.444647898069667e-05
4.271363393606403e-05
3.720219729915245e-05
2.3423605706873515e-05
9.64501411459459e-06
1.3778591592272275e-06
1.3778591592272275e-06
-4.133577477684346e-06
-6.889295796140132e-06
-9.64501411459592e-06
-4.133577477684346e-06
1.3778591592272275e-06
4.133577477683014e-06
4.133577477683014e-06
6.8892957961388014e-06
9.64501411459459e-06
1.5156450751506162e-05
1.7912169069961946e-05
2.066788738841773e-05
2.066788738841773e-05
2.3423605706873515e-05
2.6179324025329308e-05
3.169076066224089e-05
3.444647898069667e-05
3.9957915617608246e-05
4.546935225451981e-05
4.546935225451981e-05
4.546935225451981e-05
4.546935225451981e-05
4.271363393606403e-05
4.546935225451981e-05
4.82250705729756e-05
4.82250705729756e-05
5.373650720988717e-05
6.475938048371032e-05
6.751509880216611e-05
6.751509880216611e-05
7.578225375753347e-05
7.578225375753347e-05
7.30265354390777e-05
8.129369039444505e-05
9.23165636682682e-05
9.507228198672396e-05
9.23165636682682e-05
9.507228198672396e-05
0.00010609515526054714
0.00011436231021591448
0.00011711802853437029
0.00011436231021591448
0.00011160659189745871
0.00011436231021591448
0.0001253851834897376
0.00013365233844510492
0.00013640805676356078
0.00014191949340047234
0.00014743093003738393
0.00015294236667429551
0.00015845380331120705
0.00015845380331120705
0.00016396523994811866
0.00016396523994811866
0.0001694766765850302
0.00017498811322194178
0.000172232394903486
0.0001694766765850302
0.0001694766765850302
0.00016672095826657444
0.00016396523994811866
0.00016120952162966288
0.00015294236667429551
0.00014743093003738393
0.00014467521171892812
0.00014467521171892812
0.00014191949340047234
0.00014191949340047234
0.00013916377508201656
0.00013916377508201656
0.00014467521171892812
0.00014191949340047234
0.00013089662012664922
0.00011160659189745871
9.23165636682682e-05
7.853797207598924e-05
6.475938048371032e-05
4.546935225451981e-05
3.169076066224089e-05
1.2400732433050376e-05
-1.377859159228559e-06
-1.240073243305171e-05
-2.066788738841907e-05
-3.169076066224221e-05
-4.2713633936065354e-05
-4.5469352254521147e-05
-5.098078889143272e-05
-5.3736507209888505e-05
-5.3736507209888505e-05
-5.6492225528344285e-05
-5.6492225528344285e-05
-5.098078889143272e-05
-5.3736507209888505e-05
-6.200366216525588e-05
-6.200366216525588e-05
-5.6492225528344285e-05
-5.098078889143272e-05
-5.098078889143272e-05
-5.6492225528344285e-05
-5.098078889143272e-05
-4.5469352254521147e-05
-3.995791561760957e-05
-3.720219729915378e-05
-3.720219729915378e-05
-3.995791561760957e-05
-3.720219729915378e-05
-3.169076066224221e-05
-3.169076066224221e-05
-3.720219729915378e-05
-3.4446478980697995e-05
-2.8935042343786426e-05
-2.342360570687485e-05
-2.6179324025330647e-05
-3.169076066224221e-05
-3.169076066224221e-05
-2.8935042343786426e-05
-2.6179324025330647e-05
-2.8935042343786426e-05
-3.169076066224221e-05
-3.995791561760957e-05
-3.4446478980697995e-05
-2.8935042343786426e-05
-2.8935042343786426e-05
-3.4446478980697995e-05
-3.720219729915378e-05
-3.720219729915378e-05
-3.720219729915378e-05
-3.720219729915378e-05
-3.995791561760957e-05
-4.8225070572976926e-05
-4.8225070572976926e-05
-3.720219729915378e-05
-2.8935042343786426e-05
-3.720219729915378e-05
-4.8225070572976926e-05
-4.5469352254521147e-05
-3.995791561760957e-05
-4.8225070572976926e-05
-5.6492225528344285e-05
-5.3736507209888505e-05
-5.6492225528344285e-05
-5.3736507209888505e-05
-5.098078889143272e-05
-5.3736507209888505e-05
-5.9247943846800084e-05
-6.200366216525588e-05
-5.9247943846800084e-05
-5.3736507209888505e-05
-5.3736507209888505e-05
-5.3736507209888505e-05
-5.3736507209888505e-05
-5.3736507209888505e-05
-5.098078889143272e-05
-5.098078889143272e-05
-5.6492225528344285e-05
-5.9247943846800084e-05
-5.3736507209888505e-05
-4.5469352254521147e-05
-4.8225070572976926e-05
-5.6492225528344285e-05
-5.9247943846800084e-05
-5.6492225528344285e-05
-5.3736507209888505e-05
-5.3736507209888505e-05
-5.6492225528344285e-05
-5.9247943846800084e-05
-5.3736507209888505e-05
-5.6492225528344285e-05
-5.6492225528344285e-05
-5.9247943846800084e-05
-6.200366216525588e-05
-5.9247943846800084e-05
-5.9247943846800084e-05
-5.9247943846800084e-05
-5.9247943846800084e-05
-5.9247943846800084e-05
-5.6492225528344285e-05
-5.9247943846800084e-05
-5.6492225528344285e-05
-5.3736507209888505e-05
-5.6492225528344285e-05
-5.6492225528344285e-05
-5.3736507209888505e-05
-5.3736507209888505e-05
-5.6492225528344285e-05
-5.9247943846800084e-05
-5.9247943846800084e-05
-5.6492225528344285e-05
-5.6492225528344285e-05
-5.3736507209888505e-05
-5.6492225528344285e-05
-5.9247943846800084e-05
-5.9247943846800084e-05
-5.6492225528344285e-05
-5.9247943846800084e-05
-5.9247943846800084e-05
-5.9247943846800084e-05
-5.3736507209888505e-05
-5.3736507209888505e-05
-5.098078889143272e-05
-3.720219729915378e-05
-2.6179324025330647e-05
-2.6179324025330647e-05
-2.6179324025330647e-05
-1.240073243305171e-05
4.133577477683014e-06
9.64501411459459e-06
6.8892957961388014e-06
1.3778591592272275e-06
-9.64501411459592e-06
-1.7912169069963278e-05
-1.7912169069963278e-05
-1.5156450751507488e-05
-9.64501411459592e-06
-6.889295796140132e-06
-2.066788738841907e-05
-3.720219729915378e-05
-4.5469352254521147e-05
-4.5469352254521147e-05
-5.098078889143272e-05
-5.3736507209888505e-05
-5.6492225528344285e-05
-5.9247943846800084e-05
-5.6492225528344285e-05
-5.098078889143272e-05
-5.3736507209888505e-05
-5.3736507209888505e-05
-5.3736507209888505e-05
-4.8225070572976926e-05
-4.5469352254521147e-05
-4.5469352254521147e-05
-4.8225070572976926e-05
-4.2713633936065354e-05
-3.995791561760957e-05
-5.3736507209888505e-05
-8.404940871290214e-05
-0.0001171180285343716
-0.00011160659189746003
9.64501411459459e-06
0.000210812451361867
0.000469849973296711
0.0007977804531929496
0.001180825299458304
0.001293809750514991
0.0009934364538033101
0.000585590142671854
0.0002576596627756154
7.578225375753347e-05
-2.6179324025330647e-05
-4.8225070572976926e-05
-2.066788738841907e-05
6.8892957961388014e-06
3.9957915617608246e-05
5.649222552834297e-05
4.82250705729756e-05
3.444647898069667e-05
1.7912169069961946e-05
1.2400732433050376e-05
1.5156450751506162e-05
1.5156450751506162e-05
1.2400732433050376e-05
1.5156450751506162e-05
2.066788738841773e-05
3.169076066224089e-05
3.720219729915245e-05
3.720219729915245e-05
3.444647898069667e-05
3.169076066224089e-05
3.9957915617608246e-05
4.82250705729756e-05
5.098078889143139e-05
5.373650720988717e-05
5.9247943846798756e-05
5.9247943846798756e-05
6.200366216525454e-05
6.200366216525454e-05
6.751509880216611e-05
7.30265354390777e-05
7.578225375753347e-05
7.578225375753347e-05
7.30265354390777e-05
7.30265354390777e-05
8.129369039444505e-05
8.956084534981241e-05
9.782800030517979e-05
0.00010333943694209132
0.00010333943694209132
0.00010333943694209132
0.00010885087357900291
0.00011987374685282605
0.0001253851834897376
0.00012814090180819342
0.0001253851834897376
0.00012814090180819342
0.00013365233844510492
0.00013916377508201656
0.00014191949340047234
0.00014467521171892812
0.00014743093003738393
0.00015018664835583973
0.00015294236667429551
0.0001556980849927513
0.0001556980849927513
0.00016120952162966288
0.00016672095826657444
0.00016672095826657444
0.000172232394903486
0.00017498811322194178
0.00017774383154039756
0.00018049954985885336
0.00018601098649576498
0.00018601098649576498
0.00018049954985885336
0.00018049954985885336
0.0001832552681773092
0.0001832552681773092
0.00017774383154039756
0.00017498811322194178
0.0001694766765850302
0.00016396523994811866
0.00016120952162966288
0.0001556980849927513
0.00015294236667429551
0.00015294236667429551
0.00015294236667429551
0.00015018664835583973
0.00014467521171892812
0.00013640805676356078
0.00013089662012664922
0.00012262946517128183
0.00011436231021591448
9.782800030517979e-05
8.129369039444505e-05
5.9247943846798756e-05
3.9957915617608246e-05
2.3423605706873515e-05
9.64501411459459e-06
-4.133577477684346e-06
-2.066788738841907e-05
-3.4446478980697995e-05
-4.2713633936065354e-05
-5.098078889143272e-05
-5.9247943846800084e-05
-6.475938048371164e-05
-6.751509880216745e-05
-6.200366216525588e-05
-6.200366216525588e-05
-6.475938048371164e-05
-6.751509880216745e-05
-6.200366216525588e-05
-5.3736507209888505e-05
-5.098078889143272e-05
-5.098078889143272e-05
-5.3736507209888505e-05
-6.200366216525588e-05
-6.475938048371164e-05
-6.200366216525588e-05
-6.200366216525588e-05
-5.6492225528344285e-05
-5.3736507209888505e-05
-4.2713633936065354e-05
-4.2713633936065354e-05
-5.098078889143272e-05
-5.3736507209888505e-05
-5.098078889143272e-05
-4.8225070572976926e-05
-4.8225070572976926e-05
-4.8225070572976926e-05
-5.098078889143272e-05
-4.8225070572976926e-05
-4.2713633936065354e-05
-4.2713633936065354e-05
-4.5469352254521147e-05
-5.098078889143272e-05
-4.8225070572976926e-05
-4.2713633936065354e-05
-4.2713633936065354e-05
-4.8225070572976926e-05
-4.8225070572976926e-05
-4.8225070572976926e-05
-4.8225070572976926e-05
-4.8225070572976926e-05
-4.8225070572976926e-05
-5.6492225528344285e-05
-6.200366216525588e-05
-5.9247943846800084e-05
-5.9247943846800084e-05
-6.200366216525588e-05
-6.475938048371164e-05
-5.9247943846800084e-05
-5.3736507209888505e-05
-5.3736507209888505e-05
-5.9247943846800084e-05
-6.475938048371164e-05
-7.027081712062322e-05
-6.751509880216745e-05
-6.475938048371164e-05
-7.027081712062322e-05
-7.027081712062322e-05
-7.027081712062322e-05
-6.751509880216745e-05
-6.751509880216745e-05
-7.027081712062322e-05
-7.302653543907902e-05
-8.129369039444639e-05
-8.129369039444639e-05
-7.85379720759906e-05
-7.302653543907902e-05
-7.302653543907902e-05
-7.85379720759906e-05
-7.85379720759906e-05
-7.302653543907902e-05
-7.027081712062322e-05
-7.027081712062322e-05
-7.85379720759906e-05
-8.680512703135793e-05
-8.680512703135793e-05
-8.129369039444639e-05
-8.129369039444639e-05
-8.680512703135793e-05
-8.956084534981374e-05
-8.680512703135793e-05
-8.956084534981374e-05
-9.231656366826955e-05
-9.78280003051811e-05
-9.78280003051811e-05
-9.78280003051811e-05
-8.956084534981374e-05
-9.507228198672531e-05
-9.507228198672531e-05
-9.231656366826955e-05
-8.956084534981374e-05
-8.680512703135793e-05
-8.956084534981374e-05
-9.231656366826955e-05
-9.507228198672531e-05
-9.231656366826955e-05
-9.231656366826955e-05
-9.78280003051811e-05
-0.00010058371862363688
-0.00010333943694209268
-0.00010058371862363688
-0.00010058371862363688
-0.00010058371862363688
-0.00010333943694209268
-0.00010058371862363688
-9.78280003051811e-05
-9.78280003051811e-05
-9.78280003051811e-05
-0.00010058371862363688
-9.507228198672531e-05
-8.956084534981374e-05
-8.680512703135793e-05
-9.231656366826955e-05
-9.507228198672531e-05
-0.00010058371862363688
-0.00010058371862363688
-9.507228198672531e-05
-8.956084534981374e-05
-8.404940871290214e-05
-7.85379720759906e-05
-7.85379720759906e-05
-7.85379720759906e-05
-7.85379720759906e-05
-7.85379720759906e-05
-7.027081712062322e-05
-4.8225070572976926e-05
-3.169076066224221e-05
-3.169076066224221e-05
-4.2713633936065354e-05
-5.9247943846800084e-05
-6.475938048371164e-05
-5.9247943846800084e-05
-4.8225070572976926e-05
-4.8225070572976926e-05
-5.3736507209888505e-05
-5.3736507209888505e-05
-6.475938048371164e-05
-7.57822537575348e-05
-8.129369039444639e-05
-8.404940871290214e-05
-8.404940871290214e-05
-8.404940871290214e-05
-8.129369039444639e-05
-8.404940871290214e-05
-8.404940871290214e-05
-8.129369039444639e-05
-8.404940871290214e-05
-7.85379720759906e-05
-7.85379720759906e-05
-7.85379720759906e-05
-7.85379720759906e-05
-7.85379720759906e-05
-7.302653543907902e-05
-7.302653543907902e-05
-0.00010609515526054846
-0.00015294236667429682
-0.00016947667658503157
-8.680512703135793e-05
0.00012814090180819342
0.000456071381704432
0.0008611619745174325
0.0013103440604257258
0.0017071674982833593
0.0017788161745632097
0.0014811985961699847
0.0010816194399938957
0.0007261317769130989
0.00041749132524605104
0.00016672095826657444
5.098078889143139e-05
4.271363393606403e-05
4.546935225451981e-05
3.444647898069667e-05
1.7912169069961946e-05
-1.377859159228559e-06
-1.7912169069963278e-05
-2.6179324025330647e-05
-2.6179324025330647e-05
-2.6179324025330647e-05
-3.169076066224221e-05
-2.8935042343786426e-05
-2.8935042343786426e-05
-2.6179324025330647e-05
-2.342360570687485e-05
-2.342360570687485e-05
-2.066788738841907e-05
-1.5156450751507488e-05
-9.64501411459592e-06
-1.240073243305171e-05
-1.5156450751507488e-05
-1.7912169069963278e-05
-2.066788738841907e-05
-1.7912169069963278e-05
-1.5156450751507488e-05
-9.64501411459592e-06
-4.133577477684346e-06
-4.133577477684346e-06
-4.133577477684346e-06
-1.377859159228559e-06
-1.377859159228559e-06
-4.133577477684346e-06
-1.377859159228559e-06
4.133577477683014e-06
1.7912169069961946e-05
2.066788738841773e-05
2.3423605706873515e-05
2.3423605706873515e-05
2.8935042343785094e-05
3.444647898069667e-05
3.9957915617608246e-05
4.271363393606403e-05
4.546935225451981e-05
5.098078889143139e-05
5.649222552834297e-05
5.9247943846798756e-05
6.475938048371032e-05
6.751509880216611e-05
7.30265354390777e-05
7.853797207598924e-05
8.68051270313566e-05
8.956084534981241e-05
8.956084534981241e-05
9.782800030517979e-05
0.00011160659189745871
0.00011436231021591448
0.00011436231021591448
0.00011436231021591448
0.00012262946517128183
0.00012814090180819342
0.00013365233844510492
0.00013365233844510492
0.00013365233844510492
0.00013640805676356078
0.00014191949340047234
0.00014467521171892812
0.00013916377508201656
0.00013640805676356078
0.00013640805676356078
0.00013916377508201656
0.00013916377508201656
0.00013916377508201656
0.00013089662012664922
0.00012262946517128183
0.00012262946517128183
0.00012262946517128183
0.00011711802853437029
0.00011436231021591448
0.00011160659189745871
0.00010885087357900291
9.782800030517979e-05
8.956084534981241e-05
7.30265354390777e-05
5.098078889143139e-05
3.169076066224089e-05
1.5156450751506162e-05
-4.133577477684346e-06
-2.342360570687485e-05
-3.995791561760957e-05
-5.3736507209888505e-05
-5.9247943846800084e-05
-6.751509880216745e-05
-7.85379720759906e-05
-8.404940871290214e-05
-8.680512703135793e-05
-8.129369039444639e-05
-8.129369039444639e-05
-8.680512703135793e-05
-8.680512703135793e-05
-8.956084534981374e-05
-8.404940871290214e-05
-8.129369039444639e-05
-8.404940871290214e-05
-8.680512703135793e-05
-8.680512703135793e-05
-8.680512703135793e-05
-8.404940871290214e-05
-8.129369039444639e-05
-8.129369039444639e-05
-8.404940871290214e-05
-7.85379720759906e-05
-7.302653543907902e-05
-7.57822537575348e-05
-7.57822537575348e-05
-7.85379720759906e-05
-7.302653543907902e-05
-7.027081712062322e-05
-7.302653543907902e-05
-7.57822537575348e-05
-7.302653543907902e-05
-7.027081712062322e-05
-7.57822537575348e-05
-7.85379720759906e-05
-7.57822537575348e-05
-7.57822537575348e-05
-7.57822537575348e-05
-7.57822537575348e-05
-8.129369039444639e-05
-8.404940871290214e-05
-8.404940871290214e-05
-8.129369039444639e-05
-8.129369039444639e-05
-8.404940871290214e-05
-8.680512703135793e-05
-8.680512703135793e-05
-8.404940871290214e-05
-8.129369039444639e-05
-8.404940871290214e-05
-8.956084534981374e-05
-9.231656366826955e-05
-8.680512703135793e-05
-8.404940871290214e-05
-8.680512703135793e-05
-8.956084534981374e-05
-8.680512703135793e-05
-8.404940871290214e-05
-8.404940871290214e-05
-8.404940871290214e-05
-8.680512703135793e-05
-9.231656366826955e-05
-9.231656366826955e-05
-9.231656366826955e-05
-9.231656366826955e-05
-9.231656366826955e-05
-9.507228198672531e-05
-9.78280003051811e-05
-9.507228198672531e-05
-9.507228198672531e-05
-9.507228198672531e-05
-9.78280003051811e-05
-9.78280003051811e-05
-9.78280003051811e-05
-0.00010058371862363688
-9.78280003051811e-05
-9.231656366826955e-05
-8.680512703135793e-05
-8.129369039444639e-05
-8.129369039444639e-05
-8.956084534981374e-05
-9.507228198672531e-05
-9.78280003051811e-05
-9.507228198672531e-05
-9.231656366826955e-05
-9.507228198672531e-05
-0.00010058371862363688
-0.00010333943694209268
-9.78280003051811e-05
-9.78280003051811e-05
-0.00010058371862363688
-0.00010333943694209268
-0.00010333943694209268
-0.00010058371862363688
-0.00010058371862363688
-0.00010058371862363688
-0.00010333943694209268
-0.00010333943694209268
-9.78280003051811e-05
-9.78280003051811e-05
-0.00010058371862363688
-0.00010333943694209268
-0.00010333943694209268
-0.00010333943694209268
-0.00010058371862363688
-0.00010058371862363688
-0.00010333943694209268
-0.00010333943694209268
-0.00010333943694209268
-0.00010333943694209268
-0.00010609515526054846
-0.00010609515526054846
-0.00011160659189746003
-0.00010609515526054846
-0.00010333943694209268
-0.00010609515526054846
-0.00010885087357900426
-0.00010885087357900426
-0.00010333943694209268
-0.00010058371862363688
-0.00010058371862363688
-0.00010609515526054846
-0.00010609515526054846
-0.00010333943694209268
-0.00010333943694209268
-9.78280003051811e-05
-9.231656366826955e-05
-8.956084534981374e-05
-8.404940871290214e-05
-8.129369039444639e-05
-7.85379720759906e-05
-6.475938048371164e-05
-4.5469352254521147e-05
-3.720219729915378e-05
-4.2713633936065354e-05
-5.6492225528344285e-05
-6.751509880216745e-05
-7.027081712062322e-05
-7.027081712062322e-05
-6.751509880216745e-05
-6.475938048371164e-05
-6.200366216525588e-05
-7.027081712062322e-05
-8.680512703135793e-05
-9.231656366826955e-05
-9.231656366826955e-05
-8.956084534981374e-05
-9.78280003051811e-05
-0.00010609515526054846
-0.00010609515526054846
-0.00010058371862363688
-0.00010058371862363688
-0.00010609515526054846
-0.00010885087357900426
-0.00010609515526054846
-0.00010609515526054846
-0.00010333943694209268
-0.00010333943694209268
-0.00010885087357900426
-0.00010333943694209268
-0.00011160659189746003
-0.00014743093003738526
-0.00020254529640650095
-0.00024388107118333775
-0.00019152242313267784
-1.377859159228559e-06
0.0003072625925078196
0.0007316432135500107
0.0012194053559166852
0.0016989003433279916
0.0018835334706645297
0.0016520531319142435
0.0012414511024643313
0.0008611619745174325
0.0005056743114366363
0.00020805673304341124
5.373650720988717e-05
2.3423605706873515e-05
1.7912169069961946e-05
4.133577477683014e-06
-1.240073243305171e-05
-3.169076066224221e-05
-4.5469352254521147e-05
-5.098078889143272e-05
-4.8225070572976926e-05
-4.5469352254521147e-05
-5.3736507209888505e-05
-6.200366216525588e-05
-6.200366216525588e-05
-6.475938048371164e-05
-6.475938048371164e-05
-5.9247943846800084e-05
-5.9247943846800084e-05
-5.6492225528344285e-05
-4.8225070572976926e-05
-4.2713633936065354e-05
-4.2713633936065354e-05
-4.2713633936065354e-05
-4.2713633936065354e-05
-3.995791561760957e-05
-3.169076066224221e-05
-2.342360570687485e-05
-1.5156450751507488e-05
-6.889295796140132e-06
-9.64501411459592e-06
-9.64501411459592e-06
-4.133577477684346e-06
-4.133577477684346e-06
-6.889295796140132e-06
-6.889295796140132e-06
-1.377859159228559e-06
4.133577477683014e-06
6.8892957961388014e-06
6.8892957961388014e-06
4.133577477683014e-06
1.2400732433050376e-05
1.7912169069961946e-05
2.066788738841773e-05
2.6179324025329308e-05
2.8935042343785094e-05
3.444647898069667e-05
4.546935225451981e-05
4.82250705729756e-05
5.098078889143139e-05
5.649222552834297e-05
6.475938048371032e-05
7.30265354390777e-05
7.578225375753347e-05
7.853797207598924e-05
8.404940871290084e-05
8.956084534981241e-05
9.23165636682682e-05
9.507228198672396e-05
0.00010058371862363556
0.00010333943694209132
0.00011436231021591448
0.00012814090180819342
0.00013089662012664922
0.00012262946517128183
0.00011987374685282605
0.00011711802853437029
0.00011711802853437029
0.00011711802853437029
0.00011711802853437029
0.00011160659189745871
0.00011160659189745871
0.00011160659189745871
0.00010609515526054714
0.00010058371862363556
9.507228198672396e-05
9.23165636682682e-05
9.507228198672396e-05
9.507228198672396e-05
8.956084534981241e-05
8.404940871290084e-05
7.578225375753347e-05
7.02708171206219e-05
5.649222552834297e-05
3.9957915617608246e-05
2.066788738841773e-05
9.64501411459459e-06
4.133577477683014e-06
-1.5156450751507488e-05
-3.720219729915378e-05
-5.3736507209888505e-05
-7.027081712062322e-05
-8.129369039444639e-05
-8.956084534981374e-05
-9.231656366826955e-05
-9.507228198672531e-05
-9.78280003051811e-05
-9.507228198672531e-05
-9.231656366826955e-05
-9.231656366826955e-05
-9.507228198672531e-05
-9.507228198672531e-05
-9.231656366826955e-05
-8.680512703135793e-05
-8.956084534981374e-05
-8.680512703135793e-05
-8.680512703135793e-05
-8.956084534981374e-05
-8.404940871290214e-05
-8.404940871290214e-05
-8.404940871290214e-05
-8.129369039444639e-05
-7.85379720759906e-05
-7.302653543907902e-05
-7.302653543907902e-05
-7.85379720759906e-05
-8.129369039444639e-05
-7.85379720759906e-05
-7.302653543907902e-05
-7.57822537575348e-05
-7.57822537575348e-05
-8.129369039444639e-05
-8.129369039444639e-05
-7.302653543907902e-05
-6.475938048371164e-05
-6.475938048371164e-05
-7.302653543907902e-05
-7.57822537575348e-05
-7.302653543907902e-05
-7.302653543907902e-05
-7.302653543907902e-05
-7.85379720759906e-05
-8.404940871290214e-05
-8.129369039444639e-05
-7.85379720759906e-05
-7.57822537575348e-05
-8.680512703135793e-05
-8.680512703135793e-05
-8.404940871290214e-05
-8.404940871290214e-05
-8.680512703135793e-05
-8.956084534981374e-05
-8.956084534981374e-05
-8.404940871290214e-05
-8.129369039444639e-05
-8.404940871290214e-05
-8.680512703135793e-05
-8.956084534981374e-05
-8.680512703135793e-05
-8.404940871290214e-05
-8.404940871290214e-05
-8.404940871290214e-05
-8.956084534981374e-05
-9.231656366826955e-05
-8.956084534981374e-05
-8.956084534981374e-05
-8.956084534981374e-05
-8.956084534981374e-05
-8.956084534981374e-05
-8.680512703135793e-05
-9.231656366826955e-05
-9.231656366826955e-05
-8.956084534981374e-05
-8.956084534981374e-05
-8.956084534981374e-05
-8.680512703135793e-05
-8.956084534981374e-05
-8.956084534981374e-05
-9.231656366826955e-05
-8.680512703135793e-05
-8.956084534981374e-05
-9.507228198672531e-05
-9.78280003051811e-05
-9.78280003051811e-05
-9.231656366826955e-05
-8.680512703135793e-05
-8.404940871290214e-05
-8.956084534981374e-05
-9.78280003051811e-05
-9.78280003051811e-05
-9.78280003051811e-05
-9.78280003051811e-05
-0.00010058371862363688
-0.00010609515526054846
-0.00010058371862363688
-0.00010333943694209268
-0.00010609515526054846
-0.00010609515526054846
-0.00010333943694209268
-9.78280003051811e-05
-0.00010058371862363688
-0.00010333943694209268
-0.00010333943694209268
-0.00010058371862363688
-9.507228198672531e-05
-9.231656366826955e-05
-9.78280003051811e-05
-0.00010609515526054846
-0.00010885087357900426
-0.00010333943694209268
-0.00010058371862363688
-0.00010609515526054846
-0.00011160659189746003
-0.00011160659189746003
-0.00010885087357900426
-0.00010609515526054846
-0.00010333943694209268
-0.00010609515526054846
-0.00010333943694209268
-9.78280003051811e-05
-9.78280003051811e-05
-0.00010333943694209268
-0.00011160659189746003
-0.0001198737468528274
-0.0001171180285343716
-0.00010885087357900426
-0.00010609515526054846
-0.00011160659189746003
-0.0001171180285343716
-0.0001171180285343716
-0.00011160659189746003
-0.00010885087357900426
-0.00010609515526054846
-9.231656366826955e-05
-8.680512703135793e-05
-8.680512703135793e-05
-8.404940871290214e-05
-7.302653543907902e-05
-5.6492225528344285e-05
-5.098078889143272e-05
-5.098078889143272e-05
-6.475938048371164e-05
-7.57822537575348e-05
-7.85379720759906e-05
-8.129369039444639e-05
-8.129369039444639e-05
-7.85379720759906e-05
-8.404940871290214e-05
-0.00010333943694209268
-0.0001198737468528274
-0.00011436231021591582
-0.00010609515526054846
-0.00010609515526054846
-0.00011436231021591582
-0.0001171180285343716
-0.00011160659189746003
-0.00010609515526054846
-0.00010609515526054846
-0.00011436231021591582
-0.00011436231021591582
-0.00011160659189746003
-0.00011160659189746003
-0.00011160659189746003
-0.00011436231021591582
-0.00011436231021591582
-0.00011160659189746003
-0.00011436231021591582
-0.0001364080567635621
-0.00018049954985885472
-0.00022734676127260308
-0.00023010247959105888
-0.00011436231021591582
9.23165636682682e-05
0.0003982012970168605
0.0008253376363775078
0.0013158554970626377
0.001530801525902189
0.0013268783703364606
0.0009300549324788276
0.000585590142671854
0.0003348197756923775
0.00011711802853437029
-1.377859159228559e-06
-2.066788738841907e-05
-4.133577477684346e-06
1.3778591592272275e-06
-9.64501411459592e-06
-2.342360570687485e-05
-3.995791561760957e-05
-5.098078889143272e-05
-5.6492225528344285e-05
-5.3736507209888505e-05
-5.3736507209888505e-05
-5.3736507209888505e-05
-5.3736507209888505e-05
-5.3736507209888505e-05
-4.8225070572976926e-05
-4.2713633936065354e-05
-3.995791561760957e-05
-4.2713633936065354e-05
-3.995791561760957e-05
-3.169076066224221e-05
-2.342360570687485e-05
-2.066788738841907e-05
-2.342360570687485e-05
-2.6179324025330647e-05
-1.7912169069963278e-05
-1.240073243305171e-05
-9.64501411459592e-06
-6.889295796140132e-06
-6.889295796140132e-06
1.3778591592272275e-06
9.64501411459459e-06
1.2400732433050376e-05
1.2400732433050376e-05
1.2400732433050376e-05
2.066788738841773e-05
2.8935042343785094e-05
3.720219729915245e-05
3.9957915617608246e-05
3.720219729915245e-05
3.444647898069667e-05
4.271363393606403e-05
4.82250705729756e-05
5.098078889143139e-05
5.649222552834297e-05
6.475938048371032e-05
6.751509880216611e-05
7.02708171206219e-05
7.578225375753347e-05
7.853797207598924e-05
8.956084534981241e-05
9.507228198672396e-05
0.00010058371862363556
0.00010058371862363556
0.00010333943694209132
0.00011160659189745871
0.00011711802853437029
0.00012262946517128183
0.00012262946517128183
0.00012262946517128183
0.00013089662012664922
0.00013640805676356078
0.00013640805676356078
0.00013640805676356078
0.00013640805676356078
0.00014191949340047234
0.00015018664835583973
0.0001556980849927513
0.00014743093003738393
0.00013640805676356078
0.00013089662012664922
0.00012814090180819342
0.0001253851834897376
0.00011987374685282605
0.00011160659189745871
0.00011436231021591448
0.00011987374685282605
0.00011160659189745871
0.00010609515526054714
9.507228198672396e-05
7.853797207598924e-05
6.751509880216611e-05
5.649222552834297e-05
3.720219729915245e-05
1.7912169069961946e-05
-4.133577477684346e-06
-1.5156450751507488e-05
-2.8935042343786426e-05
-4.8225070572976926e-05
-6.751509880216745e-05
-8.404940871290214e-05
-9.78280003051811e-05
-0.00010609515526054846
-0.0001171180285343716
-0.00012814090180819475
-0.00013089662012665053
-0.00013089662012665053
-0.00012814090180819475
-0.00013089662012665053
-0.0001391637750820179
-0.00014191949340047367
-0.00014191949340047367
-0.00014191949340047367
-0.00014191949340047367
-0.0001391637750820179
-0.0001391637750820179
-0.0001391637750820179
-0.0001336523384451063
-0.00013089662012665053
-0.00013089662012665053
-0.00012538518348973897
-0.0001198737468528274
-0.0001171180285343716
-0.00011436231021591582
-0.00011436231021591582
-0.00011436231021591582
-0.00011160659189746003
-0.00010609515526054846
-0.00010058371862363688
-0.00010058371862363688
-0.00010058371862363688
-9.78280003051811e-05
-9.507228198672531e-05
-0.00010058371862363688
-0.00010609515526054846
-0.00010885087357900426
-0.00010609515526054846
-9.78280003051811e-05
-9.78280003051811e-05
-0.00010058371862363688
-0.00010058371862363688
-9.78280003051811e-05
-9.507228198672531e-05
-9.78280003051811e-05
-0.00010333943694209268
-0.00010885087357900426
-0.00010885087357900426
-0.00010333943694209268
-0.00010058371862363688
-0.00010609515526054846
-0.00010885087357900426
-0.00010885087357900426
-0.00010333943694209268
-0.00010058371862363688
-0.00010609515526054846
-0.00011160659189746003
-0.00011160659189746003
-0.00010885087357900426
-0.00010885087357900426
-0.00011160659189746003
-0.00010058371862363688
-9.507228198672531e-05
-9.78280003051811e-05
-9.78280003051811e-05
-0.00010058371862363688
-0.00010885087357900426
-0.00011436231021591582
-0.00011436231021591582
-0.00010885087357900426
-0.00010609515526054846
-0.00011160659189746003
-0.00011436231021591582
-0.00011160659189746003
-0.00010609515526054846
-0.00010333943694209268
-0.00010609515526054846
-0.00011160659189746003
-0.00011436231021591582
-0.00011160659189746003
-0.00010609515526054846
-0.00010885087357900426
-0.00011160659189746003
-0.00011436231021591582
-0.00010885087357900426
-0.00010609515526054846
-0.00010885087357900426
-0.00011160659189746003
-0.00010885087357900426
-0.00010885087357900426
-0.00011436231021591582
-0.0001171180285343716
-0.0001198737468528274
-0.0001198737468528274
-0.00011160659189746003
-0.00011160659189746003
-0.00011436231021591582
-0.00011436231021591582
-0.00011436231021591582
-0.00010609515526054846
-0.00010609515526054846
-0.00010885087357900426
-0.00011160659189746003
-0.00011160659189746003
-0.00010609515526054846
-0.00010333943694209268
-0.00010609515526054846
-0.00010609515526054846
-0.00010885087357900426
-0.00010885087357900426
-0.00010609515526054846
-0.00010885087357900426
-0.00010885087357900426
-0.00010885087357900426
-0.00010333943694209268
-9.231656366826955e-05
-8.680512703135793e-05
-0.00010058371862363688
-0.00010609515526054846
-9.78280003051811e-05
-9.78280003051811e-05
-0.00010058371862363688
-9.78280003051811e-05
-8.956084534981374e-05
-8.680512703135793e-05
-8.129369039444639e-05
-8.129369039444639e-05
-8.129369039444639e-05
-7.027081712062322e-05
-5.098078889143272e-05
-3.169076066224221e-05
-3.169076066224221e-05
-4.8225070572976926e-05
-6.200366216525588e-05
-6.475938048371164e-05
-5.9247943846800084e-05
-6.200366216525588e-05
-6.200366216525588e-05
-6.751509880216745e-05
-7.57822537575348e-05
-8.404940871290214e-05
-8.956084534981374e-05
-8.956084534981374e-05
-9.231656366826955e-05
-9.231656366826955e-05
-9.231656366826955e-05
-8.956084534981374e-05
-8.956084534981374e-05
-9.507228198672531e-05
-9.78280003051811e-05
-9.78280003051811e-05
-9.507228198672531e-05
-9.507228198672531e-05
-9.507228198672531e-05
-8.956084534981374e-05
-8.404940871290214e-05
-8.129369039444639e-05
-8.129369039444639e-05
-0.00010058371862363688
-0.0001336523384451063
-0.00016672095826657574
-0.0001584538033112084
-3.995791561760957e-05
0.00016672095826657444
0.0004615828183413437
0.0008418719462882423
0.001257985412375066
0.0013985270466163114
0.001136733806363011
0.0007343989318684667
0.0004064684519722279
0.00019152242313267648
3.444647898069667e-05
-3.720219729915378e-05
-3.995791561760957e-05
-1.7912169069963278e-05
-6.889295796140132e-06
-1.5156450751507488e-05
-3.169076066224221e-05
-4.5469352254521147e-05
-5.098078889143272e-05
-5.3736507209888505e-05
-5.6492225528344285e-05
-6.200366216525588e-05
-6.475938048371164e-05
-6.200366216525588e-05
-5.3736507209888505e-05
-5.6492225528344285e-05
-5.9247943846800084e-05
-5.9247943846800084e-05
-5.098078889143272e-05
-4.5469352254521147e-05
-3.995791561760957e-05
-3.995791561760957e-05
-4.2713633936065354e-05
-3.995791561760957e-05
-3.4446478980697995e-05
-3.169076066224221e-05
-2.8935042343786426e-05
-2.8935042343786426e-05
-2.342360570687485e-05
-1.5156450751507488e-05
-1.240073243305171e-05
-1.7912169069963278e-05
-1.7912169069963278e-05
-1.5156450751507488e-05
-9.64501411459592e-06
-1.377859159228559e-06
9.64501411459459e-06
1.7912169069961946e-05
1.7912169069961946e-05
1.5156450751506162e-05
2.066788738841773e-05
2.066788738841773e-05
2.066788738841773e-05
2.066788738841773e-05
2.6179324025329308e-05
3.9957915617608246e-05
4.271363393606403e-05
4.546935225451981e-05
5.098078889143139e-05
5.9247943846798756e-05
6.475938048371032e-05
6.751509880216611e-05
7.02708171206219e-05
7.853797207598924e-05
8.68051270313566e-05
8.68051270313566e-05
9.507228198672396e-05
9.782800030517979e-05
0.00010333943694209132
0.00011160659189745871
0.00011436231021591448
0.00011436231021591448
0.00011436231021591448
0.00011436231021591448
0.00011711802853437029
0.0001253851834897376
0.0001253851834897376
0.00012262946517128183
0.00011987374685282605
0.00011987374685282605
0.00011987374685282605
0.00011711802853437029
0.00010885087357900291
0.00010333943694209132
9.782800030517979e-05
0.00010058371862363556
0.00010058371862363556
9.507228198672396e-05
9.23165636682682e-05
8.68051270313566e-05
8.68051270313566e-05
8.68051270313566e-05
7.853797207598924e-05
5.649222552834297e-05
3.444647898069667e-05
2.066788738841773e-05
1.3778591592272275e-06
-1.7912169069963278e-05
-3.720219729915378e-05
-5.098078889143272e-05
-5.9247943846800084e-05
-7.027081712062322e-05
-8.404940871290214e-05
-9.231656366826955e-05
-9.507228198672531e-05
-9.507228198672531e-05
-9.78280003051811e-05
-0.00010058371862363688
-0.00010885087357900426
-0.00010885087357900426
-0.00010058371862363688
-9.78280003051811e-05
-9.78280003051811e-05
-0.00010058371862363688
-9.78280003051811e-05
-9.507228198672531e-05
-8.680512703135793e-05
-8.680512703135793e-05
-8.956084534981374e-05
-8.956084534981374e-05
-8.404940871290214e-05
-8.404940871290214e-05
-8.680512703135793e-05
-8.956084534981374e-05
-8.404940871290214e-05
-7.57822537575348e-05
-7.027081712062322e-05
-6.475938048371164e-05
-7.027081712062322e-05
-7.85379720759906e-05
-7.302653543907902e-05
-6.751509880216745e-05
-6.751509880216745e-05
-7.85379720759906e-05
-8.129369039444639e-05
-8.129369039444639e-05
-7.85379720759906e-05
-7.85379720759906e-05
-8.404940871290214e-05
-8.680512703135793e-05
-7.57822537575348e-05
-7.027081712062322e-05
-7.302653543907902e-05
-7.85379720759906e-05
-8.404940871290214e-05
-8.129369039444639e-05
-7.57822537575348e-05
-7.85379720759906e-05
-8.680512703135793e-05
-9.231656366826955e-05
-9.507228198672531e-05
-8.956084534981374e-05
-8.680512703135793e-05
-8.680512703135793e-05
-8.956084534981374e-05
-8.956084534981374e-05
-8.956084534981374e-05
-8.956084534981374e-05
-9.231656366826955e-05
-9.507228198672531e-05
-9.507228198672531e-05
-9.231656366826955e-05
-9.507228198672531e-05
-9.507228198672531e-05
-9.507228198672531e-05
-9.231656366826955e-05
-8.956084534981374e-05
-8.956084534981374e-05
-8.956084534981374e-05
-9.231656366826955e-05
-9.507228198672531e-05
-9.78280003051811e-05
-9.507228198672531e-05
-9.507228198672531e-05
-0.00010058371862363688
-0.00010058371862363688
-9.78280003051811e-05
-9.231656366826955e-05
-8.680512703135793e-05
-9.231656366826955e-05
-9.507228198672531e-05
-8.680512703135793e-05
-8.404940871290214e-05
-8.956084534981374e-05
-9.507228198672531e-05
-9.78280003051811e-05
-8.956084534981374e-05
-8.680512703135793e-05
-9.231656366826955e-05
-9.231656366826955e-05
-9.231656366826955e-05
-8.956084534981374e-05
-8.404940871290214e-05
-7.57822537575348e-05
-7.85379720759906e-05
-8.404940871290214e-05
-8.404940871290214e-05
-7.85379720759906e-05
-7.85379720759906e-05
-8.404940871290214e-05
-8.956084534981374e-05
-8.956084534981374e-05
-8.404940871290214e-05
-8.129369039444639e-05
-8.129369039444639e-05
-8.680512703135793e-05
-8.129369039444639e-05
-8.129369039444639e-05
-8.404940871290214e-05
-8.404940871290214e-05
-8.404940871290214e-05
-8.404940871290214e-05
-8.129369039444639e-05
-8.129369039444639e-05
-8.129369039444639e-05
-8.404940871290214e-05
-8.680512703135793e-05
-8.404940871290214e-05
-8.129369039444639e-05
-8.129369039444639e-05
-8.680512703135793e-05
-8.680512703135793e-05
-7.85379720759906e-05
-7.302653543907902e-05
-7.57822537575348e-05
-7.85379720759906e-05
-7.85379720759906e-05
-7.302653543907902e-05
-7.302653543907902e-05
-7.57822537575348e-05
-7.57822537575348e-05
-6.751509880216745e-05
-6.475938048371164e-05
-5.6492225528344285e-05
-5.3736507209888505e-05
-5.3736507209888505e-05
-4.2713633936065354e-05
-1.7912169069963278e-05
-6.889295796140132e-06
-1.5156450751507488e-05
-3.169076066224221e-05
-3.995791561760957e-05
-3.995791561760957e-05
-3.4446478980697995e-05
-3.169076066224221e-05
-3.169076066224221e-05
-3.720219729915378e-05
-4.5469352254521147e-05
-5.3736507209888505e-05
-6.200366216525588e-05
-6.475938048371164e-05
-6.475938048371164e-05
-6.475938048371164e-05
-6.475938048371164e-05
-7.027081712062322e-05
-7.302653543907902e-05
-7.57822537575348e-05
-7.027081712062322e-05
-6.200366216525588e-05
-5.9247943846800084e-05
-6.200366216525588e-05
-5.9247943846800084e-05
-5.6492225528344285e-05
-5.098078889143272e-05
-5.098078889143272e-05
-5.9247943846800084e-05
-8.680512703135793e-05
-0.0001364080567635621
-0.00016396523994811996
-9.507228198672531e-05
9.782800030517979e-05
0.00041473560692759526
0.0008391162279697863
0.001318611215381093
0.001759526146334019
0.0019028234988937198
0.0016382745403219644
0.0012221610742351409
0.0008446276646066979
0.0005001628747997245
0.0002135681696803228
7.30265354390777e-05
5.098078889143139e-05
4.271363393606403e-05
3.169076066224089e-05
1.5156450751506162e-05
-4.133577477684346e-06
-1.7912169069963278e-05
-2.066788738841907e-05
-2.066788738841907e-05
-2.6179324025330647e-05
-2.6179324025330647e-05
-2.8935042343786426e-05
-2.342360570687485e-05
-1.7912169069963278e-05
-1.7912169069963278e-05
-2.066788738841907e-05
-2.066788738841907e-05
-1.5156450751507488e-05
-9.64501411459592e-06
-6.889295796140132e-06
-4.133577477684346e-06
-1.377859159228559e-06
-1.377859159228559e-06
1.3778591592272275e-06
4.133577477683014e-06
6.8892957961388014e-06
9.64501411459459e-06
9.64501411459459e-06
1.7912169069961946e-05
2.3423605706873515e-05
2.3423605706873515e-05
3.169076066224089e-05
4.271363393606403e-05
5.098078889143139e-05
4.82250705729756e-05
4.546935225451981e-05
3.720219729915245e-05
4.546935225451981e-05
5.098078889143139e-05
5.649222552834297e-05
5.9247943846798756e-05
6.475938048371032e-05
7.30265354390777e-05
7.853797207598924e-05
7.853797207598924e-05
8.129369039444505e-05
8.68051270313566e-05
9.23165636682682e-05
0.00010058371862363556
0.00010609515526054714
0.00010609515526054714
0.00010885087357900291
0.00011160659189745871
0.00011711802853437029
0.0001253851834897376
0.00012814090180819342
0.00013089662012664922
0.00013640805676356078
0.00014191949340047234
0.00014743093003738393
0.00015294236667429551
0.00015294236667429551
0.0001556980849927513
0.00015845380331120705
0.00016396523994811866
0.00016672095826657444
0.00016120952162966288
0.00016120952162966288
0.00016120952162966288
0.00016396523994811866
0.00016396523994811866
0.0001556980849927513
0.00015018664835583973
0.00014743093003738393
0.00015294236667429551
0.0001556980849927513
0.00015018664835583973
0.00014743093003738393
0.00014467521171892812
0.00013916377508201656
0.00012814090180819342
0.00011436231021591448
0.00010058371862363556
8.956084534981241e-05
7.30265354390777e-05
4.546935225451981e-05
1.5156450751506162e-05
-6.889295796140132e-06
-2.6179324025330647e-05
-3.995791561760957e-05
-5.098078889143272e-05
-6.200366216525588e-05
-6.751509880216745e-05
-6.751509880216745e-05
-6.751509880216745e-05
-6.751509880216745e-05
-6.475938048371164e-05
-6.200366216525588e-05
-6.200366216525588e-05
-5.9247943846800084e-05
-6.200366216525588e-05
-6.475938048371164e-05
-6.751509880216745e-05
-6.751509880216745e-05
-5.9247943846800084e-05
-5.9247943846800084e-05
-6.200366216525588e-05
-6.200366216525588e-05
-6.475938048371164e-05
-6.200366216525588e-05
-5.9247943846800084e-05
-6.200366216525588e-05
-6.751509880216745e-05
-6.475938048371164e-05
-5.9247943846800084e-05
-5.9247943846800084e-05
-5.9247943846800084e-05
-6.200366216525588e-05
-5.9247943846800084e-05
-5.3736507209888505e-05
-5.098078889143272e-05
-5.3736507209888505e-05
-5.6492225528344285e-05
-5.9247943846800084e-05
-5.6492225528344285e-05
-5.3736507209888505e-05
-5.9247943846800084e-05
-6.200366216525588e-05
-6.200366216525588e-05
-6.200366216525588e-05
-6.200366216525588e-05
-6.200366216525588e-05
-6.475938048371164e-05
-6.475938048371164e-05
-6.475938048371164e-05
-6.475938048371164e-05
-6.475938048371164e-05
-6.751509880216745e-05
-7.027081712062322e-05
-6.475938048371164e-05
-5.6492225528344285e-05
-5.9247943846800084e-05
-6.475938048371164e-05
-7.027081712062322e-05
-7.57822537575348e-05
-7.027081712062322e-05
-7.302653543907902e-05
-7.85379720759906e-05
-7.85379720759906e-05
-7.57822537575348e-05
-7.85379720759906e-05
-7.85379720759906e-05
-7.57822537575348e-05
-7.85379720759906e-05
-8.129369039444639e-05
-7.85379720759906e-05
-7.302653543907902e-05
-7.57822537575348e-05
-7.85379720759906e-05
-8.129369039444639e-05
-7.85379720759906e-05
-7.302653543907902e-05
-7.57822537575348e-05
-8.129369039444639e-05
-8.129369039444639e-05
-8.129369039444639e-05
-7.85379720759906e-05
-7.57822537575348e-05
-8.404940871290214e-05
-8.404940871290214e-05
-8.129369039444639e-05
-8.129369039444639e-05
-8.129369039444639e-05
-8.404940871290214e-05
-8.404940871290214e-05
-7.85379720759906e-05
-7.302653543907902e-05
-7.57822537575348e-05
-7.85379720759906e-05
-8.129369039444639e-05
-8.129369039444639e-05
-7.85379720759906e-05
-7.85379720759906e-05
-8.129369039444639e-05
-8.680512703135793e-05
-8.404940871290214e-05
-7.57822537575348e-05
-7.302653543907902e-05
-7.027081712062322e-05
-7.302653543907902e-05
-8.129369039444639e-05
-7.85379720759906e-05
-8.129369039444639e-05
-8.680512703135793e-05
-8.956084534981374e-05
-8.404940871290214e-05
-7.85379720759906e-05
-7.85379720759906e-05
-8.129369039444639e-05
-8.129369039444639e-05
-8.129369039444639e-05
-7.85379720759906e-05
-7.302653543907902e-05
-7.302653543907902e-05
-7.57822537575348e-05
-7.302653543907902e-05
-7.027081712062322e-05
-6.751509880216745e-05
-7.027081712062322e-05
-7.302653543907902e-05
-7.302653543907902e-05
-6.751509880216745e-05
-6.751509880216745e-05
-7.027081712062322e-05
-7.57822537575348e-05
-7.57822537575348e-05
-7.57822537575348e-05
-7.027081712062322e-05
-6.751509880216745e-05
-7.027081712062322e-05
-7.302653543907902e-05
-6.751509880216745e-05
-5.6492225528344285e-05
-5.098078889143272e-05
-5.098078889143272e-05
-5.098078889143272e-05
-3.995791561760957e-05
-1.5156450751507488e-05
-1.377859159228559e-06
-1.377859159228559e-06
-9.64501411459592e-06
-1.7912169069963278e-05
-2.342360570687485e-05
-2.6179324025330647e-05
-3.720219729915378e-05
-3.4446478980697995e-05
-3.720219729915378e-05
-5.3736507209888505e-05
-6.475938048371164e-05
-6.200366216525588e-05
-5.9247943846800084e-05
-5.6492225528344285e-05
-6.200366216525588e-05
-6.751509880216745e-05
-7.57822537575348e-05
-7.57822537575348e-05
-7.027081712062322e-05
-6.200366216525588e-05
-6.475938048371164e-05
-7.027081712062322e-05
-7.302653543907902e-05
-7.027081712062322e-05
-7.027081712062322e-05
-7.302653543907902e-05
-7.302653543907902e-05
-7.57822537575348e-05
-8.680512703135793e-05
-0.0001226294651712832
-0.0001777438315403989
-0.0002190796063172357
-0.00014467521171892948
7.578225375753347e-05
0.00042024704356450677
0.0008639176928358884
0.0013709698634317533
0.0018036176394293122
0.0018890449073014407
0.0015969387655451277
0.0011946038910505827
0.0008198261997405958
0.0004615828183413437
0.00017774383154039756
6.475938048371032e-05
5.9247943846798756e-05
4.82250705729756e-05
2.6179324025329308e-05
4.133577477683014e-06
-1.240073243305171e-05
-2.342360570687485e-05
-3.169076066224221e-05
-3.720219729915378e-05
-3.995791561760957e-05
-3.995791561760957e-05
-3.720219729915378e-05
-3.169076066224221e-05
-2.8935042343786426e-05
-2.8935042343786426e-05
-3.4446478980697995e-05
-3.4446478980697995e-05
-3.169076066224221e-05
-3.169076066224221e-05
-2.6179324025330647e-05
-2.342360570687485e-05
-1.5156450751507488e-05
-1.7912169069963278e-05
-1.5156450751507488e-05
-1.5156450751507488e-05
-1.5156450751507488e-05
-9.64501411459592e-06
-1.377859159228559e-06
1.3778591592272275e-06
1.3778591592272275e-06
4.133577477683014e-06
6.8892957961388014e-06
9.64501411459459e-06
9.64501411459459e-06
1.5156450751506162e-05
2.6179324025329308e-05
3.444647898069667e-05
3.169076066224089e-05
3.169076066224089e-05
3.169076066224089e-05
3.720219729915245e-05
4.82250705729756e-05
5.098078889143139e-05
4.82250705729756e-05
5.098078889143139e-05
5.649222552834297e-05
6.200366216525454e-05
6.751509880216611e-05
7.30265354390777e-05
7.30265354390777e-05
7.853797207598924e-05
8.956084534981241e-05
9.23165636682682e-05
9.782800030517979e-05
9.782800030517979e-05
0.00010609515526054714
0.00011436231021591448
0.00012262946517128183
0.0001253851834897376
0.0001253851834897376
0.00012814090180819342
0.00014467521171892812
0.0001556980849927513
0.0001556980849927513
0.00014467521171892812
0.00014191949340047234
0.00014467521171892812
0.00014743093003738393
0.00015018664835583973
0.00014743093003738393
0.00013916377508201656
0.00013365233844510492
0.00013089662012664922
0.0001253851834897376
0.0001253851834897376
0.00012262946517128183
0.00011987374685282605
0.00012262946517128183
0.00011711802853437029
0.00010333943694209132
8.68051270313566e-05
7.578225375753347e-05
6.200366216525454e-05
4.546935225451981e-05
2.6179324025329308e-05
6.8892957961388014e-06
-9.64501411459592e-06
-2.342360570687485e-05
-3.720219729915378e-05
-5.3736507209888505e-05
-7.027081712062322e-05
-7.57822537575348e-05
-8.129369039444639e-05
-8.129369039444639e-05
-8.404940871290214e-05
-8.404940871290214e-05
-7.85379720759906e-05
-6.751509880216745e-05
-6.200366216525588e-05
-6.751509880216745e-05
-7.85379720759906e-05
-7.85379720759906e-05
-7.85379720759906e-05
-8.129369039444639e-05
-8.404940871290214e-05
-8.680512703135793e-05
-8.129369039444639e-05
-7.85379720759906e-05
-7.85379720759906e-05
-7.57822537575348e-05
-7.85379720759906e-05
-7.85379720759906e-05
-7.57822537575348e-05
-7.027081712062322e-05
-6.751509880216745e-05
-7.302653543907902e-05
-7.302653543907902e-05
-6.751509880216745e-05
-6.751509880216745e-05
-7.57822537575348e-05
-7.57822537575348e-05
-7.302653543907902e-05
-7.027081712062322e-05
-7.027081712062322e-05
-7.302653543907902e-05
-7.302653543907902e-05
-7.302653543907902e-05
-7.302653543907902e-05
-6.751509880216745e-05
-6.751509880216745e-05
-7.027081712062322e-05
-7.57822537575348e-05
-7.57822537575348e-05
-7.027081712062322e-05
-7.302653543907902e-05
-7.302653543907902e-05
-7.57822537575348e-05
-7.302653543907902e-05
-7.027081712062322e-05
-6.751509880216745e-05
-6.200366216525588e-05
-6.200366216525588e-05
-6.751509880216745e-05
-6.751509880216745e-05
-6.751509880216745e-05
-7.302653543907902e-05
-7.85379720759906e-05
-8.404940871290214e-05
-8.404940871290214e-05
-8.129369039444639e-05
-8.129369039444639e-05
-8.404940871290214e-05
-8.680512703135793e-05
-8.404940871290214e-05
-7.85379720759906e-05
-7.57822537575348e-05
-7.85379720759906e-05
-8.129369039444639e-05
-7.85379720759906e-05
-7.57822537575348e-05
-8.129369039444639e-05
-8.129369039444639e-05
-7.85379720759906e-05
-7.302653543907902e-05
-7.302653543907902e-05
-7.302653543907902e-05
-7.85379720759906e-05
-7.85379720759906e-05
-7.302653543907902e-05
-7.027081712062322e-05
-7.302653543907902e-05
-7.57822537575348e-05
-7.302653543907902e-05
-7.027081712062322e-05
-7.027081712062322e-05
-7.027081712062322e-05
-7.027081712062322e-05
-6.751509880216745e-05
-6.475938048371164e-05
-6.200366216525588e-05
-6.200366216525588e-05
-6.475938048371164e-05
-6.751509880216745e-05
-6.475938048371164e-05
-6.200366216525588e-05
-6.475938048371164e-05
-6.751509880216745e-05
-7.027081712062322e-05
-6.751509880216745e-05
-6.751509880216745e-05
-6.475938048371164e-05
-6.200366216525588e-05
-5.9247943846800084e-05
-6.200366216525588e-05
-6.475938048371164e-05
-6.751509880216745e-05
-7.302653543907902e-05
-7.57822537575348e-05
-7.57822537575348e-05
-7.302653543907902e-05
-7.302653543907902e-05
-7.85379720759906e-05
-7.85379720759906e-05
-7.85379720759906e-05
-7.85379720759906e-05
-8.129369039444639e-05
-7.85379720759906e-05
-7.85379720759906e-05
-7.85379720759906e-05
-8.129369039444639e-05
-8.129369039444639e-05
-8.404940871290214e-05
-8.404940871290214e-05
-8.404940871290214e-05
-8.129369039444639e-05
-7.85379720759906e-05
-7.57822537575348e-05
-7.57822537575348e-05
-8.129369039444639e-05
-8.404940871290214e-05
-8.129369039444639e-05
-8.129369039444639e-05
-8.404940871290214e-05
-8.404940871290214e-05
-7.85379720759906e-05
-7.027081712062322e-05
-6.475938048371164e-05
-5.098078889143272e-05
-2.342360570687485e-05
-4.133577477684346e-06
-9.64501411459592e-06
-2.8935042343786426e-05
-4.2713633936065354e-05
-4.8225070572976926e-05
-4.2713633936065354e-05
-4.2713633936065354e-05
-4.5469352254521147e-05
-4.8225070572976926e-05
-5.9247943846800084e-05
-6.475938048371164e-05
-6.475938048371164e-05
-6.751509880216745e-05
-7.027081712062322e-05
-7.302653543907902e-05
-7.027081712062322e-05
-6.475938048371164e-05
-6.751509880216745e-05
-7.302653543907902e-05
-7.57822537575348e-05
-7.302653543907902e-05
-7.027081712062322e-05
-6.751509880216745e-05
-6.475938048371164e-05
-6.751509880216745e-05
-6.751509880216745e-05
-6.475938048371164e-05
-6.751509880216745e-05
-7.027081712062322e-05
-8.129369039444639e-05
-0.00010885087357900426
-0.00014743093003738526
-0.00016947667658503157
-9.507228198672531e-05
8.129369039444505e-05
0.0003348197756923775
0.000679284565499351
0.0011119323414969095
0.0013737255817502093
0.0012028710460059502
0.0008088033264667726
0.0004533156633859763
0.00023010247959105753
7.02708171206219e-05
-1.7912169069963278e-05
-2.6179324025330647e-05
-1.377859159228559e-06
2.3423605706873515e-05
2.6179324025329308e-05
1.5156450751506162e-05
4.133577477683014e-06
-1.377859159228559e-06
1.3778591592272275e-06
4.133577477683014e-06
4.133577477683014e-06
-1.377859159228559e-06
-1.377859159228559e-06
4.133577477683014e-06
6.8892957961388014e-06
9.64501411459459e-06
9.64501411459459e-06
1.5156450751506162e-05
2.6179324025329308e-05
2.8935042343785094e-05
3.444647898069667e-05
3.9957915617608246e-05
4.271363393606403e-05
4.546935225451981e-05
4.271363393606403e-05
3.9957915617608246e-05
3.9957915617608246e-05
4.546935225451981e-05
5.373650720988717e-05
5.9247943846798756e-05
6.200366216525454e-05
6.200366216525454e-05
6.475938048371032e-05
7.578225375753347e-05
7.853797207598924e-05
8.129369039444505e-05
8.129369039444505e-05
8.68051270313566e-05
9.23165636682682e-05
9.782800030517979e-05
0.00010333943694209132
0.00010333943694209132
0.00010885087357900291
0.00011987374685282605
0.0001253851834897376
0.0001253851834897376
0.00013089662012664922
0.00013365233844510492
0.00013916377508201656
0.00014191949340047234
0.00014467521171892812
0.00015018664835583973
0.00015845380331120705
0.000172232394903486
0.00018049954985885336
0.00017774383154039756
0.00017498811322194178
0.00017498811322194178
0.00017774383154039756
0.00018601098649576498
0.0001832552681773092
0.00018601098649576498
0.00018876670481422076
0.00019152242313267648
0.00019427814145113231
0.00019152242313267648
0.00018876670481422076
0.00018601098649576498
0.00018601098649576498
0.00018876670481422076
0.0001832552681773092
0.00017498811322194178
0.0001694766765850302
0.00016396523994811866
0.00015845380331120705
0.0001556980849927513
0.00015018664835583973
0.00014743093003738393
0.00014743093003738393
0.00014743093003738393
0.00013916377508201656
0.00011987374685282605
0.00010333943694209132
8.956084534981241e-05
5.9247943846798756e-05
3.9957915617608246e-05
2.066788738841773e-05
1.3778591592272275e-06
-1.240073243305171e-05
-2.6179324025330647e-05
-3.720219729915378e-05
-4.8225070572976926e-05
-5.3736507209888505e-05
-5.6492225528344285e-05
-5.6492225528344285e-05
-5.3736507209888505e-05
-5.098078889143272e-05
-5.3736507209888505e-05
-5.9247943846800084e-05
-5.6492225528344285e-05
-5.6492225528344285e-05
-6.475938048371164e-05
-6.751509880216745e-05
-6.475938048371164e-05
-6.200366216525588e-05
-5.9247943846800084e-05
-5.9247943846800084e-05
-5.9247943846800084e-05
-5.3736507209888505e-05
-4.5469352254521147e-05
-3.995791561760957e-05
-3.720219729915378e-05
-3.995791561760957e-05
-4.2713633936065354e-05
-4.2713633936065354e-05
-3.995791561760957e-05
-4.2713633936065354e-05
-4.5469352254521147e-05
-4.2713633936065354e-05
-3.720219729915378e-05
-3.169076066224221e-05
-3.4446478980697995e-05
-3.720219729915378e-05
-3.995791561760957e-05
-3.995791561760957e-05
-3.720219729915378e-05
-3.720219729915378e-05
-3.995791561760957e-05
-4.5469352254521147e-05
-4.5469352254521147e-05
-3.4446478980697995e-05
-3.4446478980697995e-05
-3.995791561760957e-05
-4.2713633936065354e-05
-4.2713633936065354e-05
-3.720219729915378e-05
-3.720219729915378e-05
-3.995791561760957e-05
-4.5469352254521147e-05
-4.5469352254521147e-05
-3.995791561760957e-05
-3.4446478980697995e-05
-3.169076066224221e-05
-3.4446478980697995e-05
-4.2713633936065354e-05
-3.995791561760957e-05
-3.995791561760957e-05
-4.8225070572976926e-05
-5.3736507209888505e-05
-6.200366216525588e-05
-6.200366216525588e-05
-5.9247943846800084e-05
-6.475938048371164e-05
-7.027081712062322e-05
-6.751509880216745e-05
-6.751509880216745e-05
-6.751509880216745e-05
-7.027081712062322e-05
-7.302653543907902e-05
-7.57822537575348e-05
-7.027081712062322e-05
-6.751509880216745e-05
-6.751509880216745e-05
-7.302653543907902e-05
-7.027081712062322e-05
-6.475938048371164e-05
-6.751509880216745e-05
-6.751509880216745e-05
-6.751509880216745e-05
-7.027081712062322e-05
-6.751509880216745e-05
-6.475938048371164e-05
-6.475938048371164e-05
-6.751509880216745e-05
-7.027081712062322e-05
-6.751509880216745e-05
-6.475938048371164e-05
-6.475938048371164e-05
-6.751509880216745e-05
-7.027081712062322e-05
-6.475938048371164e-05
-6.200366216525588e-05
-6.200366216525588e-05
-6.475938048371164e-05
-6.751509880216745e-05
-6.475938048371164e-05
-5.9247943846800084e-05
-5.6492225528344285e-05
-5.098078889143272e-05
-5.6492225528344285e-05
-6.200366216525588e-05
-6.475938048371164e-05
-7.027081712062322e-05
-7.302653543907902e-05
-7.85379720759906e-05
-7.302653543907902e-05
-6.475938048371164e-05
-5.9247943846800084e-05
-6.475938048371164e-05
-6.751509880216745e-05
-6.751509880216745e-05
-7.027081712062322e-05
-6.751509880216745e-05
-7.027081712062322e-05
-7.027081712062322e-05
-7.302653543907902e-05
-7.302653543907902e-05
-7.027081712062322e-05
-7.027081712062322e-05
-7.302653543907902e-05
-7.027081712062322e-05
-6.475938048371164e-05
-6.200366216525588e-05
-6.475938048371164e-05
-6.475938048371164e-05
-5.3736507209888505e-05
-4.8225070572976926e-05
-4.5469352254521147e-05
-4.5469352254521147e-05
-3.720219729915378e-05
-2.066788738841907e-05
-1.377859159228559e-06
1.3778591592272275e-06
-9.64501411459592e-06
-2.342360570687485e-05
-2.6179324025330647e-05
-1.5156450751507488e-05
-1.240073243305171e-05
-1.5156450751507488e-05
-1.5156450751507488e-05
-2.8935042343786426e-05
-4.2713633936065354e-05
-5.098078889143272e-05
-5.3736507209888505e-05
-6.200366216525588e-05
-6.475938048371164e-05
-6.475938048371164e-05
-6.475938048371164e-05
-6.475938048371164e-05
-6.751509880216745e-05
-6.751509880216745e-05
-5.9247943846800084e-05
-5.6492225528344285e-05
-5.6492225528344285e-05
-6.200366216525588e-05
-6.475938048371164e-05
-6.200366216525588e-05
-5.6492225528344285e-05
-5.6492225528344285e-05
-5.9247943846800084e-05
-7.85379720759906e-05
-0.0001171180285343716
-0.00014743093003738526
-0.00012814090180819475
2.3423605706873515e-05
0.0002934840009155406
0.0006517273823147929
0.0010650851300831607
0.0014977329060807197
0.001748503273060196
0.0016107173571374067
0.0012166496375982292
0.0008391162279697863
0.0005249643396658268
0.0002549039444571596
7.30265354390777e-05
2.8935042343785094e-05
4.546935225451981e-05
4.271363393606403e-05
2.8935042343785094e-05
1.2400732433050376e-05
-6.889295796140132e-06
-2.066788738841907e-05
-2.066788738841907e-05
-2.6179324025330647e-05
-2.8935042343786426e-05
-3.4446478980697995e-05
-3.169076066224221e-05
-2.342360570687485e-05
-2.342360570687485e-05
-2.6179324025330647e-05
-2.6179324025330647e-05
-2.066788738841907e-05
-2.066788738841907e-05
-2.066788738841907e-05
-2.066788738841907e-05
-2.066788738841907e-05
-1.5156450751507488e-05
-9.64501411459592e-06
-6.889295796140132e-06
-6.889295796140132e-06
-4.133577477684346e-06
1.3778591592272275e-06
1.2400732433050376e-05
1.5156450751506162e-05
2.3423605706873515e-05
2.3423605706873515e-05
2.6179324025329308e-05
2.8935042343785094e-05
3.169076066224089e-05
3.720219729915245e-05
4.271363393606403e-05
3.9957915617608246e-05
4.546935225451981e-05
4.82250705729756e-05
4.82250705729756e-05
5.098078889143139e-05
5.9247943846798756e-05
6.751509880216611e-05
6.751509880216611e-05
6.751509880216611e-05
7.30265354390777e-05
7.853797207598924e-05
8.68051270313566e-05
9.23165636682682e-05
9.23165636682682e-05
9.507228198672396e-05
0.00010333943694209132
0.00011160659189745871
0.00011987374685282605
0.00012262946517128183
0.0001253851834897376
0.00013365233844510492
0.00014191949340047234
0.00014743093003738393
0.00014743093003738393
0.00015018664835583973
0.00015294236667429551
0.00016396523994811866
0.00016672095826657444
0.0001694766765850302
0.00016672095826657444
0.00016672095826657444
0.0001694766765850302
0.0001694766765850302
0.00016396523994811866
0.00015845380331120705
0.00015018664835583973
0.00014467521171892812
0.00014743093003738393
0.00015294236667429551
0.00015018664835583973
0.00014191949340047234
0.00013089662012664922
0.0001253851834897376
0.00011987374685282605
0.00010609515526054714
6.751509880216611e-05
5.098078889143139e-05
2.6179324025329308e-05
1.3778591592272275e-06
-2.066788738841907e-05
-3.4446478980697995e-05
-4.2713633936065354e-05
-5.098078889143272e-05
-5.6492225528344285e-05
-6.751509880216745e-05
-7.85379720759906e-05
-7.85379720759906e-05
-7.85379720759906e-05
-8.129369039444639e-05
-8.129369039444639e-05
-8.404940871290214e-05
-8.404940871290214e-05
-7.85379720759906e-05
-7.85379720759906e-05
-8.404940871290214e-05
-8.404940871290214e-05
-7.85379720759906e-05
-7.302653543907902e-05
-7.302653543907902e-05
-7.027081712062322e-05
-7.027081712062322e-05
-7.027081712062322e-05
-6.751509880216745e-05
-6.475938048371164e-05
-6.475938048371164e-05
-6.751509880216745e-05
-6.751509880216745e-05
-6.200366216525588e-05
-6.200366216525588e-05
-6.200366216525588e-05
-6.200366216525588e-05
-6.475938048371164e-05
-6.200366216525588e-05
-5.9247943846800084e-05
-5.9247943846800084e-05
-6.475938048371164e-05
-6.751509880216745e-05
-5.9247943846800084e-05
-5.098078889143272e-05
-5.3736507209888505e-05
-6.200366216525588e-05
-6.475938048371164e-05
-6.751509880216745e-05
-6.475938048371164e-05
-6.751509880216745e-05
-7.302653543907902e-05
-7.57822537575348e-05
-7.57822537575348e-05
-7.027081712062322e-05
-6.751509880216745e-05
-7.302653543907902e-05
-7.027081712062322e-05
-6.751509880216745e-05
-6.475938048371164e-05
-6.751509880216745e-05
-7.027081712062322e-05
-7.57822537575348e-05
-7.57822537575348e-05
-7.85379720759906e-05
-7.57822537575348e-05
-8.129369039444639e-05
-8.404940871290214e-05
-8.129369039444639e-05
-8.129369039444639e-05
-8.129369039444639e-05
-8.680512703135793e-05
-8.680512703135793e-05
-8.680512703135793e-05
-8.404940871290214e-05
-8.680512703135793e-05
-9.231656366826955e-05
-9.231656366826955e-05
-8.956084534981374e-05
-8.680512703135793e-05
-8.404940871290214e-05
-8.404940871290214e-05
-8.680512703135793e-05
-8.404940871290214e-05
-7.85379720759906e-05
-7.57822537575348e-05
-7.302653543907902e-05
-7.302653543907902e-05
-7.57822537575348e-05
-7.302653543907902e-05
-7.027081712062322e-05
-8.129369039444639e-05
-8.680512703135793e-05
-8.404940871290214e-05
-8.956084534981374e-05
-9.507228198672531e-05
-9.507228198672531e-05
-9.507228198672531e-05
-9.507228198672531e-05
-9.507228198672531e-05
-9.507228198672531e-05
-9.507228198672531e-05
-9.507228198672531e-05
-9.507228198672531e-05
-9.231656366826955e-05
-8.404940871290214e-05
-8.404940871290214e-05
-8.404940871290214e-05
-8.404940871290214e-05
-8.129369039444639e-05
-7.57822537575348e-05
-7.85379720759906e-05
-8.404940871290214e-05
-8.129369039444639e-05
-7.57822537575348e-05
-7.302653543907902e-05
-7.302653543907902e-05
-7.302653543907902e-05
-7.85379720759906e-05
-7.85379720759906e-05
-7.85379720759906e-05
-7.85379720759906e-05
-7.85379720759906e-05
-8.404940871290214e-05
-8.404940871290214e-05
-8.129369039444639e-05
-7.57822537575348e-05
-7.57822537575348e-05
-7.85379720759906e-05
-7.85379720759906e-05
-7.57822537575348e-05
-7.57822537575348e-05
-7.85379720759906e-05
-7.57822537575348e-05
-7.57822537575348e-05
-6.475938048371164e-05
-6.200366216525588e-05
-6.751509880216745e-05
-7.57822537575348e-05
-7.302653543907902e-05
-7.027081712062322e-05
-7.57822537575348e-05
-8.129369039444639e-05
-8.404940871290214e-05
-8.129369039444639e-05
-7.302653543907902e-05
-7.027081712062322e-05
-6.751509880216745e-05
-6.475938048371164e-05
-5.9247943846800084e-05
-5.3736507209888505e-05
-5.098078889143272e-05
-4.5469352254521147e-05
-2.6179324025330647e-05
-6.889295796140132e-06
-6.889295796140132e-06
-1.5156450751507488e-05
-2.8935042343786426e-05
-3.720219729915378e-05
-3.4446478980697995e-05
-3.169076066224221e-05
-2.6179324025330647e-05
-3.169076066224221e-05
-4.2713633936065354e-05
-5.3736507209888505e-05
-6.200366216525588e-05
-5.9247943846800084e-05
-5.6492225528344285e-05
-6.200366216525588e-05
-6.751509880216745e-05
-7.027081712062322e-05
-6.475938048371164e-05
-6.200366216525588e-05
-6.200366216525588e-05
-6.751509880216745e-05
-6.751509880216745e-05
-6.475938048371164e-05
-6.200366216525588e-05
-6.200366216525588e-05
-6.475938048371164e-05
-5.9247943846800084e-05
-5.3736507209888505e-05
-5.6492225528344285e-05
-7.027081712062322e-05
-0.00010885087357900426
-0.0001584538033112084
-0.0001777438315403989
-9.507228198672531e-05
0.00012262946517128183
0.0004643385366597993
0.0009052534676127252
0.0014040384832532226
0.0018201519493400466
0.0018725105973907065
0.0015611144274052025
0.0011587795529106576
0.0007922690165560381
0.0004478042267490647
7.30265354390777e-05
6.200366216525454e-05
5.9247943846798756e-05
5.098078889143139e-05
3.444647898069667e-05
1.5156450751506162e-05
4.133577477683014e-06
-6.889295796140132e-06
-9.64501411459592e-06
-9.64501411459592e-06
-1.5156450751507488e-05
-1.5156450751507488e-05
-1.5156450751507488e-05
-1.240073243305171e-05
-6.889295796140132e-06
-1.377859159228559e-06
-4.133577477684346e-06
-4.133577477684346e-06
4.133577477683014e-06
9.64501411459459e-06
1.2400732433050376e-05
9.64501411459459e-06
1.2400732433050376e-05
2.3423605706873515e-05
3.444647898069667e-05
3.169076066224089e-05
2.6179324025329308e-05
2.3423605706873515e-05
2.6179324025329308e-05
3.169076066224089e-05
3.444647898069667e-05
3.444647898069667e-05
3.444647898069667e-05
3.9957915617608246e-05
4.271363393606403e-05
4.546935225451981e-05
4.82250705729756e-05
5.098078889143139e-05
5.649222552834297e-05
6.200366216525454e-05
6.475938048371032e-05
7.02708171206219e-05
7.578225375753347e-05
8.129369039444505e-05
8.68051270313566e-05
8.956084534981241e-05
9.23165636682682e-05
8.956084534981241e-05
9.23165636682682e-05
0.00010058371862363556
0.00010885087357900291
0.00011160659189745871
0.00011436231021591448
0.00011436231021591448
0.00011987374685282605
0.0001253851834897376
0.00012814090180819342
0.00013365233844510492
0.00013916377508201656
0.00014467521171892812
0.00015294236667429551
0.00015294236667429551
0.00015018664835583973
0.00015294236667429551
0.00015845380331120705
0.00015845380331120705
0.00016120952162966288
0.00015845380331120705
0.00015294236667429551
0.0001556980849927513
0.00015018664835583973
0.00014191949340047234
0.00013640805676356078
0.00013640805676356078
0.00013640805676356078
0.00013365233844510492
0.00012814090180819342
0.00012814090180819342
0.00012814090180819342
0.0001253851834897376
0.00011160659189745871
9.782800030517979e-05
8.129369039444505e-05
6.475938048371032e-05
5.373650720988717e-05
4.82250705729756e-05
3.444647898069667e-05
6.8892957961388014e-06
-1.240073243305171e-05
-2.342360570687485e-05
-3.4446478980697995e-05
-4.2713633936065354e-05
-5.098078889143272e-05
-5.6492225528344285e-05
-5.6492225528344285e-05
-5.098078889143272e-05
-5.098078889143272e-05
-5.098078889143272e-05
-5.6492225528344285e-05
-5.9247943846800084e-05
-5.3736507209888505e-05
-5.098078889143272e-05
-5.3736507209888505e-05
-5.3736507209888505e-05
-5.3736507209888505e-05
-4.8225070572976926e-05
-4.8225070572976926e-05
-4.8225070572976926e-05
-4.5469352254521147e-05
-5.098078889143272e-05
-4.8225070572976926e-05
-4.2713633936065354e-05
-3.995791561760957e-05
-3.995791561760957e-05
-3.995791561760957e-05
-3.995791561760957e-05
-3.720219729915378e-05
-3.720219729915378e-05
-3.995791561760957e-05
-4.2713633936065354e-05
-4.2713633936065354e-05
-3.720219729915378e-05
-3.720219729915378e-05
-3.720219729915378e-05
-3.720219729915378e-05
-3.4446478980697995e-05
-3.169076066224221e-05
-3.995791561760957e-05
-4.5469352254521147e-05
-5.098078889143272e-05
-5.098078889143272e-05
-3.995791561760957e-05
-4.2713633936065354e-05
-5.3736507209888505e-05
-5.3736507209888505e-05
-5.098078889143272e-05
-5.098078889143272e-05
-5.3736507209888505e-05
-5.6492225528344285e-05
-6.200366216525588e-05
-5.9247943846800084e-05
-5.3736507209888505e-05
-5.6492225528344285e-05
-6.200366216525588e-05
-6.475938048371164e-05
-5.9247943846800084e-05
-5.3736507209888505e-05
-5.3736507209888505e-05
-5.3736507209888505e-05
-5.3736507209888505e-05
-5.6492225528344285e-05
-5.6492225528344285e-05
-5.6492225528344285e-05
-5.6492225528344285e-05
-5.9247943846800084e-05
-5.9247943846800084e-05
-5.3736507209888505e-05
-5.3736507209888505e-05
-5.6492225528344285e-05
-5.9247943846800084e-05
-5.9247943846800084e-05
-5.6492225528344285e-05
-5.3736507209888505e-05
-5.3736507209888505e-05
-5.6492225528344285e-05
-5.3736507209888505e-05
-4.5469352254521147e-05
-3.995791561760957e-05
-4.5469352254521147e-05
-5.098078889143272e-05
-5.6492225528344285e-05
-6.200366216525588e-05
-5.6492225528344285e-05
-5.6492225528344285e-05
-5.9247943846800084e-05
-6.200366216525588e-05
-5.9247943846800084e-05
-5.3736507209888505e-05
-5.3736507209888505e-05
-5.6492225528344285e-05
-5.3736507209888505e-05
-4.5469352254521147e-05
-3.4446478980697995e-05
-3.720219729915378e-05
-4.2713633936065354e-05
-5.098078889143272e-05
-4.8225070572976926e-05
-3.995791561760957e-05
-3.995791561760957e-05
-3.995791561760957e-05
-4.5469352254521147e-05
-5.098078889143272e-05
-4.8225070572976926e-05
-4.8225070572976926e-05
-4.8225070572976926e-05
-4.8225070572976926e-05
-4.8225070572976926e-05
-4.5469352254521147e-05
-4.5469352254521147e-05
-4.8225070572976926e-05
-4.8225070572976926e-05
-4.5469352254521147e-05
-3.995791561760957e-05
-4.2713633936065354e-05
-4.5469352254521147e-05
-4.8225070572976926e-05
-4.8225070572976926e-05
-4.5469352254521147e-05
-4.5469352254521147e-05
-4.8225070572976926e-05
-5.3736507209888505e-05
-4.8225070572976926e-05
-4.2713633936065354e-05
-4.5469352254521147e-05
-4.5469352254521147e-05
-4.8225070572976926e-05
-4.8225070572976926e-05
-4.2713633936065354e-05
-4.5469352254521147e-05
-4.8225070572976926e-05
-5.098078889143272e-05
-5.3736507209888505e-05
-4.8225070572976926e-05
-4.8225070572976926e-05
-5.098078889143272e-05
-5.098078889143272e-05
-4.8225070572976926e-05
-4.5469352254521147e-05
-3.995791561760957e-05
-3.169076066224221e-05
-2.066788738841907e-05
-2.066788738841907e-05
-2.066788738841907e-05
-1.240073243305171e-05
1.3778591592272275e-06
1.2400732433050376e-05
1.5156450751506162e-05
4.133577477683014e-06
-6.889295796140132e-06
-1.5156450751507488e-05
-1.7912169069963278e-05
-1.5156450751507488e-05
-1.240073243305171e-05
-9.64501411459592e-06
-1.5156450751507488e-05
-2.6179324025330647e-05
-4.2713633936065354e-05
-4.5469352254521147e-05
-3.995791561760957e-05
-3.995791561760957e-05
-4.5469352254521147e-05
-4.8225070572976926e-05
-5.098078889143272e-05
-5.098078889143272e-05
-4.8225070572976926e-05
-4.5469352254521147e-05
-4.8225070572976926e-05
-4.8225070572976926e-05
-4.5469352254521147e-05
-4.2713633936065354e-05
-3.995791561760957e-05
-3.995791561760957e-05
-4.2713633936065354e-05
-3.995791561760957e-05
-7.027081712062322e-05
-0.00012814090180819475
-0.00018601098649576628
-0.00016947667658503157
-1.240073243305171e-05
0.0002549039444571596
0.0006351930724040583
0.0011064209048599978
0.0015886716105897604
0.001795350484473944
0.0015859158922713046
0.0011890924544136717
0.0008391162279697863
0.0005277200579842825
0.000263171099412527
0.00011987374685282605
8.956084534981241e-05
8.68051270313566e-05
7.578225375753347e-05
6.475938048371032e-05
4.82250705729756e-05
2.6179324025329308e-05
1.5156450751506162e-05
1.2400732433050376e-05
1.5156450751506162e-05
1.7912169069961946e-05
1.7912169069961946e-05
1.5156450751506162e-05
1.2400732433050376e-05
1.7912169069961946e-05
2.3423605706873515e-05
2.3423605706873515e-05
2.066788738841773e-05
2.066788738841773e-05
2.8935042343785094e-05
3.444647898069667e-05
3.720219729915245e-05
3.444647898069667e-05
3.169076066224089e-05
3.720219729915245e-05
4.271363393606403e-05
4.271363393606403e-05
4.271363393606403e-05
4.271363393606403e-05
4.271363393606403e-05
4.82250705729756e-05
5.098078889143139e-05
5.098078889143139e-05
5.098078889143139e-05
5.649222552834297e-05
6.475938048371032e-05
7.02708171206219e-05
7.30265354390777e-05
7.30265354390777e-05
7.30265354390777e-05
8.129369039444505e-05
8.404940871290084e-05
8.404940871290084e-05
8.404940871290084e-05
8.68051270313566e-05
9.23165636682682e-05
0.00010058371862363556
0.00010609515526054714
0.00010885087357900291
0.00011160659189745871
0.00012262946517128183
0.0001253851834897376
0.00012814090180819342
0.00012814090180819342
0.00013365233844510492
0.00014191949340047234
0.00015018664835583973
0.0001556980849927513
0.00016120952162966288
0.00016396523994811866
0.00016672095826657444
0.000172232394903486
0.0001694766765850302
0.00016672095826657444
0.0001694766765850302
0.000172232394903486
0.000172232394903486
0.0001694766765850302
0.00016120952162966288
0.00015294236667429551
0.0001556980849927513
0.00015845380331120705
0.00015018664835583973
0.00014467521171892812
0.00014467521171892812
0.00014743093003738393
0.00015018664835583973
0.00014743093003738393
0.00013916377508201656
0.00013089662012664922
0.00011987374685282605
0.00011160659189745871
0.00010058371862363556
8.129369039444505e-05
6.200366216525454e-05
4.271363393606403e-05
2.8935042343785094e-05
1.5156450751506162e-05
-1.377859159228559e-06
-1.5156450751507488e-05
-2.066788738841907e-05
-3.169076066224221e-05
-4.2713633936065354e-05
-4.8225070572976926e-05
-5.6492225528344285e-05
-6.475938048371164e-05
-6.751509880216745e-05
-6.475938048371164e-05
-6.475938048371164e-05
-7.027081712062322e-05
-7.302653543907902e-05
-7.027081712062322e-05
-7.027081712062322e-05
-7.302653543907902e-05
-7.57822537575348e-05
-7.57822537575348e-05
-7.57822537575348e-05
-7.302653543907902e-05
-6.751509880216745e-05
-6.475938048371164e-05
-6.751509880216745e-05
-6.475938048371164e-05
-5.9247943846800084e-05
-5.9247943846800084e-05
-7.027081712062322e-05
-7.302653543907902e-05
-6.751509880216745e-05
-6.475938048371164e-05
-6.475938048371164e-05
-6.751509880216745e-05
-6.751509880216745e-05
-6.200366216525588e-05
-5.9247943846800084e-05
-6.200366216525588e-05
-6.475938048371164e-05
-6.475938048371164e-05
-6.200366216525588e-05
-5.9247943846800084e-05
-5.6492225528344285e-05
-5.6492225528344285e-05
-5.9247943846800084e-05
-5.9247943846800084e-05
-5.9247943846800084e-05
-6.475938048371164e-05
-7.027081712062322e-05
-7.302653543907902e-05
-7.027081712062322e-05
-6.200366216525588e-05
-5.9247943846800084e-05
-6.751509880216745e-05
-7.302653543907902e-05
-7.57822537575348e-05
-7.027081712062322e-05
-6.475938048371164e-05
-6.751509880216745e-05
-7.302653543907902e-05
-7.57822537575348e-05
-7.57822537575348e-05
-8.129369039444639e-05
-8.404940871290214e-05
-8.956084534981374e-05
-8.956084534981374e-05
-7.85379720759906e-05
-7.57822537575348e-05
-8.129369039444639e-05
-8.404940871290214e-05
-8.129369039444639e-05
-7.57822537575348e-05
-7.85379720759906e-05
-8.404940871290214e-05
-8.404940871290214e-05
-8.404940871290214e-05
-8.404940871290214e-05
-8.129369039444639e-05
-8.129369039444639e-05
-8.404940871290214e-05
-8.680512703135793e-05
-8.680512703135793e-05
-8.129369039444639e-05
-8.129369039444639e-05
-8.129369039444639e-05
-8.129369039444639e-05
-8.129369039444639e-05
-7.85379720759906e-05
-7.85379720759906e-05
-7.57822537575348e-05
-7.027081712062322e-05
-7.302653543907902e-05
-8.129369039444639e-05
-8.404940871290214e-05
-8.956084534981374e-05
-8.956084534981374e-05
-8.680512703135793e-05
-8.404940871290214e-05
-8.680512703135793e-05
-8.956084534981374e-05
-8.680512703135793e-05
-8.404940871290214e-05
-8.129369039444639e-05
-8.404940871290214e-05
-8.680512703135793e-05
-8.956084534981374e-05
-8.680512703135793e-05
-8.680512703135793e-05
-8.680512703135793e-05
-8.680512703135793e-05
-8.956084534981374e-05
-8.680512703135793e-05
-8.680512703135793e-05
-8.956084534981374e-05
-8.956084534981374e-05
-8.956084534981374e-05
-8.680512703135793e-05
-8.404940871290214e-05
-8.404940871290214e-05
-8.404940871290214e-05
-8.680512703135793e-05
-8.956084534981374e-05
-7.85379720759906e-05
-7.302653543907902e-05
-7.302653543907902e-05
-7.85379720759906e-05
-8.404940871290214e-05
-7.57822537575348e-05
-7.302653543907902e-05
-7.85379720759906e-05
-7.57822537575348e-05
-6.475938048371164e-05
-5.6492225528344285e-05
-5.6492225528344285e-05
-6.475938048371164e-05
-6.475938048371164e-05
-5.9247943846800084e-05
-4.8225070572976926e-05
-3.720219729915378e-05
-2.6179324025330647e-05
-4.133577477684346e-06
6.8892957961388014e-06
1.3778591592272275e-06
-6.889295796140132e-06
-1.7912169069963278e-05
-2.8935042343786426e-05
-2.8935042343786426e-05
-2.342360570687485e-05
-1.7912169069963278e-05
-2.066788738841907e-05
-3.720219729915378e-05
-5.3736507209888505e-05
-6.200366216525588e-05
-6.200366216525588e-05
-6.200366216525588e-05
-6.200366216525588e-05
-6.751509880216745e-05
-7.027081712062322e-05
-6.475938048371164e-05
-6.200366216525588e-05
-7.027081712062322e-05
-6.751509880216745e-05
-6.475938048371164e-05
-5.9247943846800084e-05
-6.200366216525588e-05
-6.200366216525588e-05
-6.200366216525588e-05
-6.200366216525588e-05
-5.6492225528344285e-05
-5.6492225528344285e-05
-8.129369039444639e-05
-0.0001171180285343716
-0.00014743093003738526
-0.0001198737468528274
1.5156450751506162e-05
0.00022734676127260172
0.0005194529030289152
0.0008914748760204465
0.0012690082856488892
0.0012772754406042562
0.0009355663691157388
0.0005332314946211942
0.00024663678950179223
8.404940871290084e-05
-2.6179324025330647e-05
-4.8225070572976926e-05
-2.8935042343786426e-05
-6.889295796140132e-06
1.7912169069961946e-05
2.6179324025329308e-05
1.5156450751506162e-05
-1.377859159228559e-06
-9.64501411459592e-06
-1.5156450751507488e-05
-1.5156450751507488e-05
-1.240073243305171e-05
-6.889295796140132e-06
-4.133577477684346e-06
-4.133577477684346e-06
-4.133577477684346e-06
-6.889295796140132e-06
-1.377859159228559e-06
6.8892957961388014e-06
1.2400732433050376e-05
1.2400732433050376e-05
1.2400732433050376e-05
1.5156450751506162e-05
1.7912169069961946e-05
2.6179324025329308e-05
2.8935042343785094e-05
3.169076066224089e-05
3.169076066224089e-05
3.169076066224089e-05
3.444647898069667e-05
3.720219729915245e-05
4.546935225451981e-05
4.546935225451981e-05
4.546935225451981e-05
4.82250705729756e-05
5.649222552834297e-05
5.9247943846798756e-05
6.200366216525454e-05
6.751509880216611e-05
7.30265354390777e-05
8.129369039444505e-05
8.68051270313566e-05
8.956084534981241e-05
0.00010058371862363556
0.00010609515526054714
0.00011160659189745871
0.00011160659189745871
0.00011436231021591448
0.00011711802853437029
0.0001253851834897376
0.00013640805676356078
0.00014191949340047234
0.00014191949340047234
0.00014467521171892812
0.00015018664835583973
0.00015294236667429551
0.0001556980849927513
0.00016120952162966288
0.00016120952162966288
0.00016672095826657444
0.00016672095826657444
0.0001694766765850302
0.00016672095826657444
0.00016672095826657444
0.000172232394903486
0.00017498811322194178
0.00017774383154039756
0.0001832552681773092
0.00018601098649576498
0.00018049954985885336
0.000172232394903486
0.000172232394903486
0.00016396523994811866
0.00015018664835583973
0.00013916377508201656
0.00013916377508201656
0.00013916377508201656
0.00013916377508201656
0.00013640805676356078
0.00013089662012664922
0.0001253851834897376
0.00012262946517128183
0.00010885087357900291
9.23165636682682e-05
8.404940871290084e-05
7.02708171206219e-05
5.373650720988717e-05
3.444647898069667e-05
1.5156450751506162e-05
-1.377859159228559e-06
-1.240073243305171e-05
-2.342360570687485e-05
-3.4446478980697995e-05
-4.5469352254521147e-05
-5.098078889143272e-05
-5.6492225528344285e-05
-5.3736507209888505e-05
-5.3736507209888505e-05
-5.6492225528344285e-05
-5.6492225528344285e-05
-5.6492225528344285e-05
-5.3736507209888505e-05
-4.8225070572976926e-05
-4.5469352254521147e-05
-4.5469352254521147e-05
-5.098078889143272e-05
-5.098078889143272e-05
-4.8225070572976926e-05
-4.8225070572976926e-05
-5.098078889143272e-05
-4.8225070572976926e-05
-4.5469352254521147e-05
-4.2713633936065354e-05
-4.2713633936065354e-05
-4.5469352254521147e-05
-4.5469352254521147e-05
-3.995791561760957e-05
-3.995791561760957e-05
-4.2713633936065354e-05
-4.8225070572976926e-05
-5.098078889143272e-05
-4.5469352254521147e-05
-4.2713633936065354e-05
-4.5469352254521147e-05
-4.5469352254521147e-05
-4.8225070572976926e-05
-4.8225070572976926e-05
-4.5469352254521147e-05
-4.8225070572976926e-05
-4.8225070572976926e-05
-4.8225070572976926e-05
-5.098078889143272e-05
-4.8225070572976926e-05
-4.8225070572976926e-05
-5.098078889143272e-05
-5.3736507209888505e-05
-5.098078889143272e-05
-5.098078889143272e-05
-4.5469352254521147e-05
-4.8225070572976926e-05
-5.6492225528344285e-05
-6.475938048371164e-05
-6.475938048371164e-05
-6.751509880216745e-05
-7.027081712062322e-05
-7.302653543907902e-05
-7.302653543907902e-05
-7.027081712062322e-05
-6.751509880216745e-05
-7.302653543907902e-05
-8.129369039444639e-05
-8.129369039444639e-05
-7.57822537575348e-05
-7.57822537575348e-05
-7.85379720759906e-05
-8.404940871290214e-05
-8.680512703135793e-05
-8.404940871290214e-05
-7.85379720759906e-05
-8.129369039444639e-05
-8.404940871290214e-05
-8.404940871290214e-05
-8.680512703135793e-05
-8.129369039444639e-05
-8.404940871290214e-05
-8.680512703135793e-05
-8.956084534981374e-05
-8.956084534981374e-05
-8.680512703135793e-05
-8.680512703135793e-05
-8.956084534981374e-05
-9.231656366826955e-05
-9.231656366826955e-05
-8.956084534981374e-05
-8.956084534981374e-05
-9.231656366826955e-05
-8.956084534981374e-05
-8.680512703135793e-05
-8.680512703135793e-05
-9.231656366826955e-05
-9.507228198672531e-05
-9.231656366826955e-05
-8.956084534981374e-05
-8.956084534981374e-05
-8.956084534981374e-05
-9.507228198672531e-05
-9.507228198672531e-05
-9.231656366826955e-05
-8.956084534981374e-05
-9.231656366826955e-05
-9.78280003051811e-05
-0.00010058371862363688
-9.78280003051811e-05
-9.231656366826955e-05
-9.507228198672531e-05
-9.78280003051811e-05
-0.00010058371862363688
-9.78280003051811e-05
-9.231656366826955e-05
-9.507228198672531e-05
-9.507228198672531e-05
-9.78280003051811e-05
-9.507228198672531e-05
-9.231656366826955e-05
-8.956084534981374e-05
-9.507228198672531e-05
-9.507228198672531e-05
-9.507228198672531e-05
-9.231656366826955e-05
-9.231656366826955e-05
-9.231656366826955e-05
-9.507228198672531e-05
-9.231656366826955e-05
-8.129369039444639e-05
-7.85379720759906e-05
-8.129369039444639e-05
-8.956084534981374e-05
-8.680512703135793e-05
-8.129369039444639e-05
-7.85379720759906e-05
-7.85379720759906e-05
-7.85379720759906e-05
-7.57822537575348e-05
-7.027081712062322e-05
-6.475938048371164e-05
-6.200366216525588e-05
-4.2713633936065354e-05
-2.066788738841907e-05
-1.7912169069963278e-05
-2.6179324025330647e-05
-3.995791561760957e-05
-5.098078889143272e-05
-5.6492225528344285e-05
-5.098078889143272e-05
-3.720219729915378e-05
-3.4446478980697995e-05
-4.2713633936065354e-05
-5.9247943846800084e-05
-8.404940871290214e-05
-9.231656366826955e-05
-9.507228198672531e-05
-9.231656366826955e-05
-9.78280003051811e-05
-9.78280003051811e-05
-8.956084534981374e-05
-9.231656366826955e-05
-9.507228198672531e-05
-9.78280003051811e-05
-9.507228198672531e-05
-8.680512703135793e-05
-8.680512703135793e-05
-9.231656366826955e-05
-9.507228198672531e-05
-9.231656366826955e-05
-8.956084534981374e-05
-9.507228198672531e-05
-0.0001198737468528274
-0.00016396523994811996
-0.00019703385976958942
-0.00016396523994811996
-6.889295796140132e-06
0.0002741939726863501
0.0006544831006332488
0.001089886594949263
0.0015528472724498353
0.0018036176394293122
0.001657564568551155
0.0012662525673304335
0.0008914748760204465
0.0005552772411688404
0.000263171099412527
7.02708171206219e-05
2.3423605706873515e-05
2.8935042343785094e-05
2.066788738841773e-05
6.8892957961388014e-06
-1.5156450751507488e-05
-2.6179324025330647e-05
-3.720219729915378e-05
-3.995791561760957e-05
-3.720219729915378e-05
-3.995791561760957e-05
-4.2713633936065354e-05
-4.8225070572976926e-05
-4.8225070572976926e-05
-4.5469352254521147e-05
-4.2713633936065354e-05
-4.2713633936065354e-05
-4.5469352254521147e-05
-3.995791561760957e-05
-3.4446478980697995e-05
-3.169076066224221e-05
-3.169076066224221e-05
-3.169076066224221e-05
-3.169076066224221e-05
-1.7912169069963278e-05
-6.889295796140132e-06
-4.133577477684346e-06
-1.240073243305171e-05
-1.5156450751507488e-05
-1.5156450751507488e-05
-1.240073243305171e-05
-9.64501411459592e-06
-9.64501411459592e-06
-6.889295796140132e-06
4.133577477683014e-06
1.2400732433050376e-05
9.64501411459459e-06
1.2400732433050376e-05
1.5156450751506162e-05
2.066788738841773e-05
2.3423605706873515e-05
2.3423605706873515e-05
2.6179324025329308e-05
3.169076066224089e-05
3.720219729915245e-05
3.720219729915245e-05
3.720219729915245e-05
4.271363393606403e-05
4.82250705729756e-05
5.649222552834297e-05
5.9247943846798756e-05
6.200366216525454e-05
6.475938048371032e-05
7.30265354390777e-05
7.853797207598924e-05
8.129369039444505e-05
8.68051270313566e-05
8.956084534981241e-05
9.23165636682682e-05
9.782800030517979e-05
0.00010609515526054714
0.00010609515526054714
0.00010333943694209132
0.00010609515526054714
0.00011436231021591448
0.00011711802853437029
0.00011711802853437029
0.00011160659189745871
0.00010609515526054714
0.00010885087357900291
0.00010885087357900291
0.00010609515526054714
0.00010333943694209132
0.00010058371862363556
0.00010333943694209132
0.00011160659189745871
0.00011987374685282605
0.00011436231021591448
0.00010609515526054714
0.00010333943694209132
0.00010058371862363556
8.404940871290084e-05
6.475938048371032e-05
4.82250705729756e-05
3.169076066224089e-05
1.7912169069961946e-05
4.133577477683014e-06
-1.5156450751507488e-05
-3.720219729915378e-05
-5.6492225528344285e-05
-6.200366216525588e-05
-7.027081712062322e-05
-7.85379720759906e-05
-8.129369039444639e-05
-8.404940871290214e-05
-8.680512703135793e-05
-8.680512703135793e-05
-9.231656366826955e-05
-9.507228198672531e-05
-9.78280003051811e-05
-9.507228198672531e-05
-9.231656366826955e-05
-9.507228198672531e-05
-9.507228198672531e-05
-9.231656366826955e-05
-8.680512703135793e-05
-8.404940871290214e-05
-8.680512703135793e-05
-8.956084534981374e-05
-8.404940871290214e-05
-8.404940871290214e-05
-8.680512703135793e-05
-8.680512703135793e-05
-8.404940871290214e-05
-8.680512703135793e-05
-8.404940871290214e-05
-8.129369039444639e-05
-8.404940871290214e-05
-8.680512703135793e-05
-8.956084534981374e-05
-8.680512703135793e-05
-8.956084534981374e-05
-8.956084534981374e-05
-8.680512703135793e-05
-8.956084534981374e-05
-8.956084534981374e-05
-8.680512703135793e-05
-8.680512703135793e-05
-8.956084534981374e-05
-8.680512703135793e-05
-7.85379720759906e-05
-6.751509880216745e-05
-6.751509880216745e-05
-8.129369039444639e-05
-8.680512703135793e-05
-8.680512703135793e-05
-8.404940871290214e-05
-8.956084534981374e-05
-9.231656366826955e-05
-9.507228198672531e-05
-9.231656366826955e-05
-9.231656366826955e-05
-9.231656366826955e-05
-0.00010058371862363688
-0.00010609515526054846
-0.00010609515526054846
-0.00010333943694209268
-0.00010058371862363688
-0.00010609515526054846
-0.00010885087357900426
-0.00010885087357900426
-0.00010609515526054846
-0.00010609515526054846
-0.00010885087357900426
-0.00011436231021591582
-0.00011160659189746003
-0.00010885087357900426
-0.00010609515526054846
-0.00010609515526054846
-0.00010885087357900426
-0.00010885087357900426
-0.00010609515526054846
-0.00010333943694209268
-0.00010333943694209268
-0.00010609515526054846
-0.00011436231021591582
-0.00011160659189746003
-0.00010885087357900426
-0.00010885087357900426
-0.00010885087357900426
-0.00010885087357900426
-0.00010333943694209268
-0.00010333943694209268
-0.00010609515526054846
-0.00010885087357900426
-0.00010609515526054846
-0.00010333943694209268
-0.00010333943694209268
-0.00010333943694209268
-0.00010609515526054846
-0.00010885087357900426
-0.00010058371862363688
-9.507228198672531e-05
-9.507228198672531e-05
-9.78280003051811e-05
-9.231656366826955e-05
-8.956084534981374e-05
-8.956084534981374e-05
-8.956084534981374e-05
-0.00010058371862363688
-0.00010885087357900426
-0.00011160659189746003
-0.00010885087357900426
-0.00010609515526054846
-0.00010333943694209268
-0.00010333943694209268
-0.00010885087357900426
-0.00010609515526054846
-0.00010885087357900426
-0.00011160659189746003
-0.00011436231021591582
-0.00011160659189746003
-0.00010885087357900426
-0.00010885087357900426
-0.00010885087357900426
-0.00010885087357900426
-0.00011160659189746003
-0.00010609515526054846
-0.00010058371862363688
-0.00010333943694209268
-0.00010609515526054846
-0.00010885087357900426
-0.00010609515526054846
-0.00010333943694209268
-0.00010609515526054846
-0.00011160659189746003
-0.00011436231021591582
-0.00010885087357900426
-0.00010885087357900426
-0.00010609515526054846
-0.00010885087357900426
-0.00011160659189746003
-0.00010885087357900426
-0.00010609515526054846
-0.00010885087357900426
-0.00010885087357900426
-0.00010885087357900426
-0.00010885087357900426
-0.00010333943694209268
-9.231656366826955e-05
-8.680512703135793e-05
-8.680512703135793e-05
-7.302653543907902e-05
-6.751509880216745e-05
-5.6492225528344285e-05
-3.4446478980697995e-05
-2.8935042343786426e-05
-3.4446478980697995e-05
-4.8225070572976926e-05
-5.9247943846800084e-05
-6.751509880216745e-05
-5.9247943846800084e-05
-5.098078889143272e-05
-4.5469352254521147e-05
-5.098078889143272e-05
-6.751509880216745e-05
-8.680512703135793e-05
-9.231656366826955e-05
-8.956084534981374e-05
-8.404940871290214e-05
-8.956084534981374e-05
-9.507228198672531e-05
-9.507228198672531e-05
-8.956084534981374e-05
-8.956084534981374e-05
-9.231656366826955e-05
-9.507228198672531e-05
-9.507228198672531e-05
-9.231656366826955e-05
-9.231656366826955e-05
-9.231656366826955e-05
-9.231656366826955e-05
-8.956084534981374e-05
-8.680512703135793e-05
-8.404940871290214e-05
-9.231656366826955e-05
-0.0001226294651712832
-0.00018325526817731047
-0.0002218353246356915
-0.0001612095216296642
3.9957915617608246e-05
0.00036788839551384685
0.0008005361715114055
0.0013048326237888143
0.001748503273060196
0.001842197695887693
0.0015556029907682909
0.0011587795529106576
0.0008005361715114055
0.0004533156633859763
0.00017498811322194178
4.82250705729756e-05
3.169076066224089e-05
2.6179324025329308e-05
1.5156450751506162e-05
-1.377859159228559e-06
-2.342360570687485e-05
-3.995791561760957e-05
-4.5469352254521147e-05
-3.995791561760957e-05
-3.4446478980697995e-05
-3.720219729915378e-05
-3.995791561760957e-05
-4.2713633936065354e-05
-4.2713633936065354e-05
-3.995791561760957e-05
-4.8225070572976926e-05
-5.3736507209888505e-05
-3.720219729915378e-05
-3.4446478980697995e-05
-3.4446478980697995e-05
-3.4446478980697995e-05
-3.169076066224221e-05
-2.6179324025330647e-05
-2.066788738841907e-05
-1.7912169069963278e-05
-1.5156450751507488e-05
-1.7912169069963278e-05
-1.240073243305171e-05
-4.133577477684346e-06
4.133577477683014e-06
6.8892957961388014e-06
4.133577477683014e-06
9.64501411459459e-06
1.5156450751506162e-05
2.066788738841773e-05
2.3423605706873515e-05
2.3423605706873515e-05
2.3423605706873515e-05
3.169076066224089e-05
3.720219729915245e-05
4.271363393606403e-05
4.271363393606403e-05
4.271363393606403e-05
5.098078889143139e-05
5.9247943846798756e-05
6.200366216525454e-05
6.475938048371032e-05
6.751509880216611e-05
7.578225375753347e-05
8.129369039444505e-05
8.68051270313566e-05
9.23165636682682e-05
9.782800030517979e-05
0.00011436231021591448
0.00012262946517128183
0.00011987374685282605
0.00011987374685282605
0.00012262946517128183
0.00011987374685282605
0.00011987374685282605
0.00011987374685282605
0.00011987374685282605
0.00012262946517128183
0.00012814090180819342
0.00013089662012664922
0.00013640805676356078
0.00014467521171892812
0.00014191949340047234
0.00013640805676356078
0.00013365233844510492
0.00012814090180819342
0.00011987374685282605
0.00011436231021591448
0.00010885087357900291
0.00011160659189745871
0.00011436231021591448
0.00011160659189745871
0.00010333943694209132
0.00010058371862363556
0.00010058371862363556
9.507228198672396e-05
8.404940871290084e-05
7.02708171206219e-05
3.9957915617608246e-05
2.6179324025329308e-05
6.8892957961388014e-06
-9.64501411459592e-06
-2.8935042343786426e-05
-3.995791561760957e-05
-4.5469352254521147e-05
-5.6492225528344285e-05
-6.751509880216745e-05
-7.57822537575348e-05
-8.129369039444639e-05
-8.129369039444639e-05
-8.404940871290214e-05
-8.680512703135793e-05
-8.956084534981374e-05
-8.404940871290214e-05
-8.129369039444639e-05
-8.129369039444639e-05
-8.680512703135793e-05
-8.680512703135793e-05
-8.404940871290214e-05
-8.129369039444639e-05
-8.129369039444639e-05
-8.129369039444639e-05
-8.404940871290214e-05
-8.404940871290214e-05
-7.85379720759906e-05
-7.302653543907902e-05
-7.302653543907902e-05
-7.57822537575348e-05
-7.85379720759906e-05
-7.57822537575348e-05
-7.57822537575348e-05
-7.85379720759906e-05
-8.129369039444639e-05
-8.129369039444639e-05
-7.85379720759906e-05
-7.027081712062322e-05
-6.200366216525588e-05
-5.6492225528344285e-05
-5.9247943846800084e-05
-6.200366216525588e-05
-5.3736507209888505e-05
-5.098078889143272e-05
-5.9247943846800084e-05
-6.751509880216745e-05
-6.751509880216745e-05
-6.200366216525588e-05
-6.475938048371164e-05
-6.475938048371164e-05
-6.200366216525588e-05
-6.200366216525588e-05
-6.200366216525588e-05
-6.200366216525588e-05
-6.475938048371164e-05
-6.751509880216745e-05
-7.027081712062322e-05
-6.475938048371164e-05
-6.751509880216745e-05
-7.302653543907902e-05
-7.302653543907902e-05
-7.85379720759906e-05
-7.57822537575348e-05
-7.85379720759906e-05
-8.404940871290214e-05
-8.680512703135793e-05
-8.404940871290214e-05
-8.129369039444639e-05
-8.404940871290214e-05
-8.956084534981374e-05
-9.231656366826955e-05
-8.956084534981374e-05
-8.404940871290214e-05
-8.404940871290214e-05
-8.680512703135793e-05
-8.956084534981374e-05
-8.956084534981374e-05
-8.680512703135793e-05
-8.680512703135793e-05
-9.231656366826955e-05
-9.507228198672531e-05
-9.507228198672531e-05
-8.956084534981374e-05
-8.956084534981374e-05
-9.231656366826955e-05
-9.507228198672531e-05
-9.507228198672531e-05
-8.404940871290214e-05
-7.57822537575348e-05
-7.57822537575348e-05
-8.404940871290214e-05
-8.956084534981374e-05
-8.404940871290214e-05
-8.404940871290214e-05
-9.507228198672531e-05
-0.00010058371862363688
-0.00010058371862363688
-9.78280003051811e-05
-9.231656366826955e-05
-9.507228198672531e-05
-9.507228198672531e-05
-9.507228198672531e-05
-9.231656366826955e-05
-8.680512703135793e-05
-8.956084534981374e-05
-8.956084534981374e-05
-9.231656366826955e-05
-9.507228198672531e-05
-8.956084534981374e-05
-8.680512703135793e-05
-9.507228198672531e-05
-0.00010058371862363688
-9.78280003051811e-05
-9.507228198672531e-05
-9.231656366826955e-05
-9.78280003051811e-05
-0.00010058371862363688
-9.78280003051811e-05
-9.78280003051811e-05
-9.507228198672531e-05
-9.507228198672531e-05
-9.78280003051811e-05
-9.78280003051811e-05
-8.956084534981374e-05
-8.404940871290214e-05
-9.231656366826955e-05
-9.78280003051811e-05
-9.78280003051811e-05
-9.507228198672531e-05
-9.231656366826955e-05
-9.231656366826955e-05
-8.956084534981374e-05
-8.956084534981374e-05
-9.231656366826955e-05
-9.507228198672531e-05
-9.78280003051811e-05
-0.00010058371862363688
-9.507228198672531e-05
-9.231656366826955e-05
-8.956084534981374e-05
-9.507228198672531e-05
-0.00010333943694209268
-0.00010333943694209268
-9.231656366826955e-05
-8.404940871290214e-05
-8.680512703135793e-05
-8.956084534981374e-05
-8.129369039444639e-05
-7.57822537575348e-05
-7.57822537575348e-05
-7.027081712062322e-05
-5.098078889143272e-05
-2.8935042343786426e-05
-9.64501411459592e-06
-1.240073243305171e-05
-3.169076066224221e-05
-4.5469352254521147e-05
-5.3736507209888505e-05
-5.098078889143272e-05
-4.5469352254521147e-05
-4.5469352254521147e-05
-5.098078889143272e-05
-6.475938048371164e-05
-8.129369039444639e-05
-8.956084534981374e-05
-8.956084534981374e-05
-8.956084534981374e-05
-9.231656366826955e-05
-9.507228198672531e-05
-8.680512703135793e-05
-8.404940871290214e-05
-8.680512703135793e-05
-8.680512703135793e-05
-8.404940871290214e-05
-8.404940871290214e-05
-8.129369039444639e-05
-7.85379720759906e-05
-8.404940871290214e-05
-8.404940871290214e-05
-7.85379720759906e-05
-7.57822537575348e-05
-7.85379720759906e-05
-8.404940871290214e-05
-0.00010885087357900426
-0.00015294236667429682
-0.00020530101472495681
-0.00020254529640650095
-8.404940871290214e-05
0.00013365233844510492
0.0004726056916151668
0.0009328106507972832
0.0014260842298008686
0.001630007385366597
0.0014343513847562366
0.0010540622568093376
0.0007206203402761877
0.0004450485084306089
5.649222552834297e-05
3.169076066224089e-05
3.720219729915245e-05
3.169076066224089e-05
1.2400732433050376e-05
-6.889295796140132e-06
-2.066788738841907e-05
-2.342360570687485e-05
-2.342360570687485e-05
-2.6179324025330647e-05
-2.8935042343786426e-05
-2.6179324025330647e-05
-2.066788738841907e-05
-1.7912169069963278e-05
-1.7912169069963278e-05
-2.066788738841907e-05
-2.066788738841907e-05
-1.7912169069963278e-05
-1.5156450751507488e-05
-9.64501411459592e-06
-4.133577477684346e-06
-6.889295796140132e-06
-4.133577477684346e-06
4.133577477683014e-06
9.64501411459459e-06
9.64501411459459e-06
9.64501411459459e-06
1.5156450751506162e-05
2.3423605706873515e-05
2.6179324025329308e-05
2.6179324025329308e-05
2.6179324025329308e-05
2.8935042343785094e-05
3.720219729915245e-05
3.9957915617608246e-05
3.9957915617608246e-05
3.720219729915245e-05
3.9957915617608246e-05
4.82250705729756e-05
5.373650720988717e-05
5.9247943846798756e-05
6.475938048371032e-05
7.30265354390777e-05
8.404940871290084e-05
8.956084534981241e-05
8.68051270313566e-05
8.129369039444505e-05
8.404940871290084e-05
8.956084534981241e-05
9.782800030517979e-05
0.00010333943694209132
0.00011160659189745871
0.00011160659189745871
0.00011160659189745871
0.00012262946517128183
0.0001253851834897376
0.00012814090180819342
0.00013640805676356078
0.00013916377508201656
0.00014191949340047234
0.00014743093003738393
0.00014743093003738393
0.00014467521171892812
0.00014467521171892812
0.00015018664835583973
0.0001556980849927513
0.00014743093003738393
0.00014743093003738393
0.00015018664835583973
0.00015018664835583973
0.00014467521171892812
0.00013916377508201656
0.00013365233844510492
0.00013089662012664922
0.00012814090180819342
0.00011987374685282605
0.00011711802853437029
0.00011436231021591448
0.00011436231021591448
0.00011987374685282605
0.00011160659189745871
9.507228198672396e-05
7.853797207598924e-05
6.751509880216611e-05
5.649222552834297e-05
4.271363393606403e-05
2.3423605706873515e-05
4.133577477683014e-06
-9.64501411459592e-06
-2.342360570687485e-05
-3.4446478980697995e-05
-4.5469352254521147e-05
-5.3736507209888505e-05
-5.3736507209888505e-05
-5.6492225528344285e-05
-6.751509880216745e-05
-7.027081712062322e-05
-7.302653543907902e-05
-7.57822537575348e-05
-7.57822537575348e-05
-7.85379720759906e-05
-7.85379720759906e-05
-8.129369039444639e-05
-8.129369039444639e-05
-7.85379720759906e-05
-7.302653543907902e-05
-7.027081712062322e-05
-6.751509880216745e-05
-6.751509880216745e-05
-6.475938048371164e-05
-6.200366216525588e-05
-5.9247943846800084e-05
-5.6492225528344285e-05
-5.6492225528344285e-05
-5.3736507209888505e-05
-4.8225070572976926e-05
-5.098078889143272e-05
-5.3736507209888505e-05
-5.098078889143272e-05
-5.098078889143272e-05
-4.5469352254521147e-05
-3.995791561760957e-05
-4.5469352254521147e-05
-4.8225070572976926e-05
-5.098078889143272e-05
-4.5469352254521147e-05
-3.995791561760957e-05
-4.2713633936065354e-05
-4.5469352254521147e-05
-4.8225070572976926e-05
-4.2713633936065354e-05
-3.995791561760957e-05
-4.5469352254521147e-05
-4.8225070572976926e-05
-4.2713633936065354e-05
-3.995791561760957e-05
-4.2713633936065354e-05
-4.5469352254521147e-05
-4.8225070572976926e-05
-4.8225070572976926e-05
-4.2713633936065354e-05
-4.2713633936065354e-05
-3.995791561760957e-05
-4.2713633936065354e-05
-4.5469352254521147e-05
-4.8225070572976926e-05
-5.9247943846800084e-05
-6.475938048371164e-05
-5.9247943846800084e-05
-5.3736507209888505e-05
-5.3736507209888505e-05
-5.9247943846800084e-05
-7.027081712062322e-05
-7.302653543907902e-05
-7.027081712062322e-05
-6.751509880216745e-05
-6.751509880216745e-05
-7.027081712062322e-05
-6.751509880216745e-05
-6.200366216525588e-05
-5.6492225528344285e-05
-5.6492225528344285e-05
-5.9247943846800084e-05
-6.200366216525588e-05
-7.027081712062322e-05
-6.751509880216745e-05
-6.475938048371164e-05
-6.475938048371164e-05
-6.475938048371164e-05
-6.200366216525588e-05
-6.200366216525588e-05
-6.200366216525588e-05
-6.475938048371164e-05
-6.475938048371164e-05
-6.751509880216745e-05
-6.475938048371164e-05
-6.200366216525588e-05
-6.475938048371164e-05
-7.027081712062322e-05
-8.129369039444639e-05
-7.302653543907902e-05
-6.751509880216745e-05
-6.475938048371164e-05
-6.200366216525588e-05
-5.6492225528344285e-05
-5.9247943846800084e-05
-5.9247943846800084e-05
-5.9247943846800084e-05
-6.475938048371164e-05
-6.475938048371164e-05
-5.9247943846800084e-05
-5.3736507209888505e-05
-5.3736507209888505e-05
-5.3736507209888505e-05
-5.3736507209888505e-05
-5.9247943846800084e-05
-5.9247943846800084e-05
-4.8225070572976926e-05
-5.098078889143272e-05
-5.3736507209888505e-05
-5.098078889143272e-05
-4.8225070572976926e-05
-4.8225070572976926e-05
-4.8225070572976926e-05
-5.098078889143272e-05
-5.3736507209888505e-05
-4.8225070572976926e-05
-4.8225070572976926e-05
-5.3736507209888505e-05
-5.9247943846800084e-05
-5.6492225528344285e-05
-5.098078889143272e-05
-5.098078889143272e-05
-5.3736507209888505e-05
-5.6492225528344285e-05
-5.3736507209888505e-05
-4.5469352254521147e-05
-4.2713633936065354e-05
-3.720219729915378e-05
-3.4446478980697995e-05
-3.169076066224221e-05
-2.8935042343786426e-05
-2.342360570687485e-05
-1.377859159228559e-06
2.066788738841773e-05
3.720219729915245e-05
3.720219729915245e-05
2.3423605706873515e-05
6.8892957961388014e-06
-6.889295796140132e-06
-1.7912169069963278e-05
-1.240073243305171e-05
-1.377859159228559e-06
1.3778591592272275e-06
-6.889295796140132e-06
-2.342360570687485e-05
-3.720219729915378e-05
-3.720219729915378e-05
-4.2713633936065354e-05
-5.3736507209888505e-05
-5.6492225528344285e-05
-5.6492225528344285e-05
-4.8225070572976926e-05
-4.8225070572976926e-05
-5.098078889143272e-05
-5.3736507209888505e-05
-5.3736507209888505e-05
-4.8225070572976926e-05
-4.5469352254521147e-05
-4.8225070572976926e-05
-4.8225070572976926e-05
-4.8225070572976926e-05
-4.5469352254521147e-05
-4.2713633936065354e-05
-5.098078889143272e-05
-7.85379720759906e-05
-0.0001226294651712832
-0.00015294236667429682
-0.00010058371862363688
6.475938048371032e-05
0.000301751155870908
0.0006296816357671465
0.0010595736934462493
0.0013709698634317533
0.0010182379186694126
0.0006351930724040583
0.00037064411383230263
0.0001832552681773092
5.098078889143139e-05
2.066788738841773e-05
3.444647898069667e-05
5.098078889143139e-05
5.649222552834297e-05
4.271363393606403e-05
2.3423605706873515e-05
9.64501411459459e-06
6.8892957961388014e-06
6.8892957961388014e-06
9.64501411459459e-06
9.64501411459459e-06
6.8892957961388014e-06
9.64501411459459e-06
1.5156450751506162e-05
1.7912169069961946e-05
1.7912169069961946e-05
2.066788738841773e-05
2.3423605706873515e-05
2.6179324025329308e-05
3.169076066224089e-05
3.444647898069667e-05
3.444647898069667e-05
3.444647898069667e-05
3.720219729915245e-05
3.9957915617608246e-05
4.271363393606403e-05
4.271363393606403e-05
4.271363393606403e-05
4.82250705729756e-05
5.649222552834297e-05
5.9247943846798756e-05
5.9247943846798756e-05
6.475938048371032e-05
7.30265354390777e-05
7.853797207598924e-05
7.578225375753347e-05
7.30265354390777e-05
7.30265354390777e-05
7.02708171206219e-05
7.30265354390777e-05
7.853797207598924e-05
8.404940871290084e-05
9.23165636682682e-05
9.507228198672396e-05
9.507228198672396e-05
9.782800030517979e-05
9.507228198672396e-05
9.507228198672396e-05
9.782800030517979e-05
0.00010333943694209132
0.00011436231021591448
0.00012262946517128183
0.00011987374685282605
0.00011987374685282605
0.0001253851834897376
0.00012814090180819342
0.00012814090180819342
0.00013089662012664922
0.00012814090180819342
0.00013089662012664922
0.00015018664835583973
0.00015294236667429551
0.00015018664835583973
0.00014743093003738393
0.00014743093003738393
0.00014743093003738393
0.00014743093003738393
0.00014467521171892812
0.00013916377508201656
0.00013640805676356078
0.00013916377508201656
0.00013365233844510492
0.00013089662012664922
0.00013089662012664922
0.00013640805676356078
0.00013640805676356078
0.00013365233844510492
0.00012814090180819342
0.0001253851834897376
0.00011711802853437029
0.00011160659189745871
9.782800030517979e-05
8.129369039444505e-05
6.200366216525454e-05
4.82250705729756e-05
3.444647898069667e-05
1.2400732433050376e-05
-9.64501411459592e-06
-2.8935042343786426e-05
-4.2713633936065354e-05
-5.098078889143272e-05
-5.9247943846800084e-05
-6.751509880216745e-05
-7.85379720759906e-05
-8.129369039444639e-05
-7.85379720759906e-05
-7.85379720759906e-05
-8.129369039444639e-05
-8.680512703135793e-05
-8.956084534981374e-05
-8.404940871290214e-05
-8.129369039444639e-05
-8.404940871290214e-05
-8.680512703135793e-05
-8.404940871290214e-05
-8.129369039444639e-05
-7.57822537575348e-05
-7.57822537575348e-05
-7.57822537575348e-05
-7.57822537575348e-05
-7.302653543907902e-05
-6.475938048371164e-05
-5.9247943846800084e-05
-5.3736507209888505e-05
-5.6492225528344285e-05
-5.6492225528344285e-05
-5.098078889143272e-05
-5.3736507209888505e-05
-5.6492225528344285e-05
-5.9247943846800084e-05
-6.751509880216745e-05
-6.751509880216745e-05
-5.9247943846800084e-05
-5.6492225528344285e-05
-5.9247943846800084e-05
-6.475938048371164e-05
-5.9247943846800084e-05
-6.475938048371164e-05
-7.027081712062322e-05
-7.302653543907902e-05
-7.027081712062322e-05
