0.00012262946517128183
0.00010333943694209132
0.00010058371862363556
9.782800030517979e-05
8.129369039444505e-05
5.649222552834297e-05
2.6179324025329308e-05
1.5156450751506162e-05
9.64501411459459e-06
-4.133577477684346e-06
-3.169076066224221e-05
-5.9247943846800084e-05
-7.027081712062322e-05
-6.475938048371164e-05
-6.475938048371164e-05
-7.85379720759906e-05
-9.507228198672531e-05
-9.78280003051811e-05
-8.129369039444639e-05
-7.302653543907902e-05
-7.57822537575348e-05
-8.956084534981374e-05
-9.78280003051811e-05
-8.404940871290214e-05
-6.751509880216745e-05
-6.751509880216745e-05
-7.57822537575348e-05
-8.404940871290214e-05
-7.027081712062322e-05
-5.3736507209888505e-05
-5.098078889143272e-05
-6.475938048371164e-05
-7.57822537575348e-05
-7.027081712062322e-05
-5.098078889143272e-05
-4.5469352254521147e-05
-5.6492225528344285e-05
-6.751509880216745e-05
-6.751509880216745e-05
-5.098078889143272e-05
-4.2713633936065354e-05
-5.3736507209888505e-05
-6.475938048371164e-05
-6.751509880216745e-05
-5.3736507209888505e-05
-4.2713633936065354e-05
-4.8225070572976926e-05
-5.6492225528344285e-05
-6.200366216525588e-05
-5.6492225528344285e-05
-4.5469352254521147e-05
-4.5469352254521147e-05
-5.9247943846800084e-05
-6.475938048371164e-05
-5.9247943846800084e-05
-4.5469352254521147e-05
-4.5469352254521147e-05
-5.3736507209888505e-05
-6.751509880216745e-05
-6.475938048371164e-05
-4.8225070572976926e-05
-5.6492225528344285e-05
-7.027081712062322e-05
-7.027081712062322e-05
-5.6492225528344285e-05
-5.098078889143272e-05
-5.9247943846800084e-05
-7.027081712062322e-05
-7.57822537575348e-05
-6.475938048371164e-05
-5.6492225528344285e-05
-5.6492225528344285e-05
-7.027081712062322e-05
-7.57822537575348e-05
-6.200366216525588e-05
-5.098078889143272e-05
-5.6492225528344285e-05
-6.751509880216745e-05
-7.57822537575348e-05
-6.751509880216745e-05
-5.3736507209888505e-05
-5.3736507209888505e-05
-6.475938048371164e-05
-7.85379720759906e-05
-7.85379720759906e-05
-6.200366216525588e-05
-5.3736507209888505e-05
-6.200366216525588e-05
-7.85379720759906e-05
-8.129369039444639e-05
-6.475938048371164e-05
-5.098078889143272e-05
-5.6492225528344285e-05
-7.027081712062322e-05
-7.85379720759906e-05
-7.027081712062322e-05
-5.6492225528344285e-05
-5.9247943846800084e-05
-7.302653543907902e-05
-8.404940871290214e-05
-7.302653543907902e-05
-5.6492225528344285e-05
-5.3736507209888505e-05
-7.027081712062322e-05
-7.85379720759906e-05
-7.027081712062322e-05
-5.3736507209888505e-05
-5.098078889143272e-05
-6.475938048371164e-05
-7.85379720759906e-05
-7.85379720759906e-05
-5.9247943846800084e-05
-4.8225070572976926e-05
-4.5469352254521147e-05
-5.6492225528344285e-05
-7.027081712062322e-05
-6.200366216525588e-05
-5.098078889143272e-05
-6.200366216525588e-05
-7.85379720759906e-05
-8.129369039444639e-05
-5.098078889143272e-05
-3.169076066224221e-05
-4.2713633936065354e-05
-6.475938048371164e-05
-7.302653543907902e-05
-6.475938048371164e-05
-4.8225070572976926e-05
-5.6492225528344285e-05
-6.751509880216745e-05
-5.9247943846800084e-05
-4.5469352254521147e-05
-4.5469352254521147e-05
-5.3736507209888505e-05
-6.751509880216745e-05
-6.751509880216745e-05
-5.098078889143272e-05
-4.5469352254521147e-05
-5.6492225528344285e-05
-6.751509880216745e-05
-6.751509880216745e-05
-5.098078889143272e-05
-4.2713633936065354e-05
-4.5469352254521147e-05
-4.8225070572976926e-05
-4.5469352254521147e-05
-3.4446478980697995e-05
-1.240073243305171e-05
6.8892957961388014e-06
9.64501411459459e-06
6.8892957961388014e-06
6.8892957961388014e-06
6.8892957961388014e-06
-1.377859159228559e-06
-6.889295796140132e-06
-9.64501411459592e-06
-6.889295796140132e-06
1.3778591592272275e-06
-9.64501411459592e-06
-3.720219729915378e-05
-6.751509880216745e-05
-7.027081712062322e-05
-5.3736507209888505e-05
-4.8225070572976926e-05
-5.6492225528344285e-05
-6.751509880216745e-05
-6.475938048371164e-05
-4.2713633936065354e-05
-3.4446478980697995e-05
-4.5469352254521147e-05
-6.475938048371164e-05
-7.57822537575348e-05
-6.200366216525588e-05
-4.8225070572976926e-05
-4.8225070572976926e-05
-5.9247943846800084e-05
-6.751509880216745e-05
-6.475938048371164e-05
-7.302653543907902e-05
-0.0001226294651712832
-0.00019703385976958942
-0.00019427814145113364
-3.720219729915378e-05
0.00024663678950179223
0.0006407045090409697
0.0011119323414969095
0.001602450202182039
0.001864243442435339
0.0017347246814679172
0.0013489241168841066
0.0009355663691157388
0.0005359872129396498
3.169076066224089e-05
1.7912169069961946e-05
2.6179324025329308e-05
9.64501411459459e-06
-9.64501411459592e-06
-9.64501411459592e-06
-1.240073243305171e-05
-2.342360570687485e-05
-3.995791561760957e-05
-4.8225070572976926e-05
-3.4446478980697995e-05
-1.7912169069963278e-05
-1.5156450751507488e-05
-2.066788738841907e-05
-2.8935042343786426e-05
-2.066788738841907e-05
-1.377859159228559e-06
4.133577477683014e-06
-4.133577477684346e-06
-1.5156450751507488e-05
-9.64501411459592e-06
6.8892957961388014e-06
1.7912169069961946e-05
1.2400732433050376e-05
4.133577477683014e-06
6.8892957961388014e-06
2.3423605706873515e-05
3.720219729915245e-05
3.444647898069667e-05
2.3423605706873515e-05
2.066788738841773e-05
3.444647898069667e-05
4.82250705729756e-05
4.82250705729756e-05
3.9957915617608246e-05
3.444647898069667e-05
3.9957915617608246e-05
5.649222552834297e-05
5.9247943846798756e-05
5.098078889143139e-05
4.546935225451981e-05
5.098078889143139e-05
7.30265354390777e-05
8.404940871290084e-05
8.956084534981241e-05
7.853797207598924e-05
7.578225375753347e-05
8.68051270313566e-05
0.00010058371862363556
9.782800030517979e-05
8.68051270313566e-05
8.956084534981241e-05
0.00011160659189745871
0.00012814090180819342
0.00012814090180819342
0.0001253851834897376
0.0001253851834897376
0.00013916377508201656
0.00015018664835583973
0.00015018664835583973
0.00014743093003738393
0.00014191949340047234
0.0001556980849927513
0.00017774383154039756
0.0001832552681773092
0.00016672095826657444
0.00015845380331120705
0.000172232394903486
0.00017774383154039756
0.00016396523994811866
0.00014467521171892812
0.00014191949340047234
0.00015294236667429551
0.00015845380331120705
0.00014467521171892812
0.00013089662012664922
0.00012814090180819342
0.00014191949340047234
0.00015018664835583973
0.00014191949340047234
0.00011987374685282605
9.782800030517979e-05
9.507228198672396e-05
0.00010058371862363556
8.956084534981241e-05
6.200366216525454e-05
2.8935042343785094e-05
9.64501411459459e-06
1.3778591592272275e-06
-1.5156450751507488e-05
-3.720219729915378e-05
-5.9247943846800084e-05
-5.9247943846800084e-05
-4.2713633936065354e-05
-3.995791561760957e-05
-5.098078889143272e-05
-6.751509880216745e-05
-6.751509880216745e-05
-5.098078889143272e-05
-3.995791561760957e-05
-4.2713633936065354e-05
-5.9247943846800084e-05
-6.200366216525588e-05
-4.5469352254521147e-05
-3.169076066224221e-05
-3.169076066224221e-05
-4.5469352254521147e-05
-5.098078889143272e-05
-3.4446478980697995e-05
-2.066788738841907e-05
-1.7912169069963278e-05
-2.8935042343786426e-05
-3.995791561760957e-05
-3.169076066224221e-05
-6.889295796140132e-06
1.3778591592272275e-06
-1.7912169069963278e-05
-3.995791561760957e-05
-3.995791561760957e-05
-2.342360570687485e-05
-1.240073243305171e-05
-1.7912169069963278e-05
-2.6179324025330647e-05
-2.8935042343786426e-05
-2.066788738841907e-05
-1.240073243305171e-05
-2.066788738841907e-05
-3.720219729915378e-05
-4.2713633936065354e-05
-2.8935042343786426e-05
-1.5156450751507488e-05
-2.6179324025330647e-05
-4.2713633936065354e-05
-3.169076066224221e-05
-2.066788738841907e-05
-2.342360570687485e-05
-3.720219729915378e-05
-4.8225070572976926e-05
-3.4446478980697995e-05
-1.5156450751507488e-05
-1.5156450751507488e-05
-3.4446478980697995e-05
-4.5469352254521147e-05
-4.2713633936065354e-05
-3.169076066224221e-05
-3.169076066224221e-05
-4.5469352254521147e-05
-6.200366216525588e-05
-6.475938048371164e-05
-4.8225070572976926e-05
-3.720219729915378e-05
-4.2713633936065354e-05
-5.6492225528344285e-05
-6.200366216525588e-05
-4.5469352254521147e-05
-3.4446478980697995e-05
-4.2713633936065354e-05
-5.6492225528344285e-05
-6.475938048371164e-05
-5.6492225528344285e-05
-3.720219729915378e-05
-3.4446478980697995e-05
-4.5469352254521147e-05
-5.6492225528344285e-05
-5.3736507209888505e-05
-4.2713633936065354e-05
-3.995791561760957e-05
-5.098078889143272e-05
-6.475938048371164e-05
-6.200366216525588e-05
-4.5469352254521147e-05
-3.720219729915378e-05
-4.2713633936065354e-05
-5.6492225528344285e-05
-6.200366216525588e-05
-5.098078889143272e-05
-3.995791561760957e-05
-4.5469352254521147e-05
-5.9247943846800084e-05
-6.751509880216745e-05
-5.6492225528344285e-05
-4.5469352254521147e-05
-4.8225070572976926e-05
-5.9247943846800084e-05
-6.475938048371164e-05
-5.6492225528344285e-05
-4.5469352254521147e-05
-4.5469352254521147e-05
-5.6492225528344285e-05
-7.027081712062322e-05
-6.751509880216745e-05
-5.098078889143272e-05
-4.8225070572976926e-05
-5.6492225528344285e-05
-6.751509880216745e-05
-5.9247943846800084e-05
-3.720219729915378e-05
-4.5469352254521147e-05
-6.751509880216745e-05
-6.751509880216745e-05
-5.3736507209888505e-05
-5.098078889143272e-05
-5.6492225528344285e-05
-6.475938048371164e-05
-5.9247943846800084e-05
-4.5469352254521147e-05
-4.2713633936065354e-05
-4.8225070572976926e-05
-5.9247943846800084e-05
-6.200366216525588e-05
-5.6492225528344285e-05
-4.8225070572976926e-05
-5.098078889143272e-05
-6.200366216525588e-05
-7.027081712062322e-05
-6.751509880216745e-05
-4.8225070572976926e-05
-3.995791561760957e-05
-4.8225070572976926e-05
-5.9247943846800084e-05
-5.6492225528344285e-05
-3.995791561760957e-05
-2.8935042343786426e-05
-2.6179324025330647e-05
-3.720219729915378e-05
-3.4446478980697995e-05
-9.64501411459592e-06
1.7912169069961946e-05
2.8935042343785094e-05
2.066788738841773e-05
4.133577477683014e-06
-1.377859159228559e-06
-4.133577477684346e-06
-9.64501411459592e-06
-2.066788738841907e-05
-2.342360570687485e-05
-9.64501411459592e-06
-4.133577477684346e-06
-2.066788738841907e-05
-4.5469352254521147e-05
-6.200366216525588e-05
-5.3736507209888505e-05
-3.169076066224221e-05
-3.4446478980697995e-05
-5.6492225528344285e-05
-7.027081712062322e-05
-7.302653543907902e-05
-5.9247943846800084e-05
-5.098078889143272e-05
-5.9247943846800084e-05
-7.302653543907902e-05
-7.302653543907902e-05
-5.098078889143272e-05
-3.4446478980697995e-05
-4.2713633936065354e-05
-6.200366216525588e-05
-7.027081712062322e-05
-7.302653543907902e-05
-0.00010058371862363688
-0.0001612095216296642
-0.00019427814145113364
-0.00010609515526054846
0.0004643385366597993
0.0009162763408865484
0.0014260842298008686
0.0018118847943846788
0.001833930540932325
0.0015280458075837332
0.0011146880598153653
0.0007068417486839086
0.00032379690241855427
7.578225375753347e-05
2.066788738841773e-05
3.444647898069667e-05
3.169076066224089e-05
1.2400732433050376e-05
-9.64501411459592e-06
-1.240073243305171e-05
-1.240073243305171e-05
-2.066788738841907e-05
-3.720219729915378e-05
-4.5469352254521147e-05
-3.4446478980697995e-05
-1.7912169069963278e-05
-2.066788738841907e-05
-3.169076066224221e-05
-3.169076066224221e-05
-2.066788738841907e-05
-4.133577477684346e-06
-4.133577477684346e-06
-1.240073243305171e-05
-2.066788738841907e-05
-1.240073243305171e-05
4.133577477683014e-06
1.2400732433050376e-05
4.133577477683014e-06
-1.377859159228559e-06
4.133577477683014e-06
2.3423605706873515e-05
3.169076066224089e-05
2.3423605706873515e-05
1.2400732433050376e-05
1.5156450751506162e-05
2.8935042343785094e-05
3.9957915617608246e-05
3.444647898069667e-05
2.6179324025329308e-05
2.3423605706873515e-05
3.720219729915245e-05
5.649222552834297e-05
5.649222552834297e-05
4.546935225451981e-05
4.271363393606403e-05
5.373650720988717e-05
7.30265354390777e-05
7.30265354390777e-05
6.475938048371032e-05
5.9247943846798756e-05
6.475938048371032e-05
8.68051270313566e-05
9.782800030517979e-05
8.956084534981241e-05
7.853797207598924e-05
8.404940871290084e-05
0.00010058371862363556
0.00011436231021591448
0.00011711802853437029
0.00010885087357900291
0.00012814090180819342
0.00014467521171892812
0.00014467521171892812
0.00013640805676356078
0.00013089662012664922
0.00014191949340047234
0.0001556980849927513
0.0001556980849927513
0.00014743093003738393
0.00013365233844510492
0.00013640805676356078
0.00015018664835583973
0.00015018664835583973
0.00013640805676356078
0.00011987374685282605
0.00012262946517128183
0.00013365233844510492
0.00013916377508201656
0.0001253851834897376
0.00010885087357900291
0.00010609515526054714
0.00011987374685282605
0.00012814090180819342
0.00011160659189745871
8.404940871290084e-05
6.475938048371032e-05
6.200366216525454e-05
5.649222552834297e-05
3.720219729915245e-05
6.8892957961388014e-06
-1.7912169069963278e-05
-2.342360570687485e-05
-2.8935042343786426e-05
-4.2713633936065354e-05
-6.200366216525588e-05
-7.85379720759906e-05
-7.57822537575348e-05
-6.200366216525588e-05
-6.200366216525588e-05
-7.302653543907902e-05
-8.129369039444639e-05
-8.129369039444639e-05
-6.751509880216745e-05
-6.200366216525588e-05
-7.027081712062322e-05
-8.129369039444639e-05
-7.85379720759906e-05
-6.200366216525588e-05
-4.8225070572976926e-05
-4.8225070572976926e-05
-4.8225070572976926e-05
-4.5469352254521147e-05
-3.995791561760957e-05
-3.4446478980697995e-05
-4.5469352254521147e-05
-5.9247943846800084e-05
-6.200366216525588e-05
-5.098078889143272e-05
-3.995791561760957e-05
-4.2713633936065354e-05
-5.3736507209888505e-05
-6.200366216525588e-05
-5.3736507209888505e-05
-3.4446478980697995e-05
-3.169076066224221e-05
-5.098078889143272e-05
-4.8225070572976926e-05
-3.4446478980697995e-05
-3.169076066224221e-05
-3.995791561760957e-05
-5.3736507209888505e-05
-5.9247943846800084e-05
-4.2713633936065354e-05
-3.720219729915378e-05
-3.995791561760957e-05
-5.3736507209888505e-05
-5.9247943846800084e-05
-5.3736507209888505e-05
-4.5469352254521147e-05
-4.8225070572976926e-05
-5.6492225528344285e-05
-6.200366216525588e-05
-5.098078889143272e-05
-3.995791561760957e-05
-4.5469352254521147e-05
-5.9247943846800084e-05
-6.475938048371164e-05
-5.3736507209888505e-05
-4.2713633936065354e-05
-3.995791561760957e-05
-4.8225070572976926e-05
-6.200366216525588e-05
-6.200366216525588e-05
-5.098078889143272e-05
-4.5469352254521147e-05
-5.098078889143272e-05
-6.475938048371164e-05
-6.751509880216745e-05
-5.9247943846800084e-05
-5.3736507209888505e-05
-5.6492225528344285e-05
-7.027081712062322e-05
-7.302653543907902e-05
-5.6492225528344285e-05
-3.995791561760957e-05
-3.4446478980697995e-05
-4.5469352254521147e-05
-5.9247943846800084e-05
-5.9247943846800084e-05
-5.3736507209888505e-05
-5.3736507209888505e-05
-6.751509880216745e-05
-7.85379720759906e-05
-7.302653543907902e-05
-5.9247943846800084e-05
-5.3736507209888505e-05
-6.475938048371164e-05
-7.302653543907902e-05
-7.027081712062322e-05
-5.6492225528344285e-05
-4.8225070572976926e-05
-5.6492225528344285e-05
-7.302653543907902e-05
-7.57822537575348e-05
-6.200366216525588e-05
-5.3736507209888505e-05
-6.200366216525588e-05
-7.027081712062322e-05
-7.027081712062322e-05
-5.098078889143272e-05
-3.4446478980697995e-05
-6.475938048371164e-05
-7.302653543907902e-05
-6.751509880216745e-05
-5.3736507209888505e-05
-4.5469352254521147e-05
-5.098078889143272e-05
-6.475938048371164e-05
-6.751509880216745e-05
-5.6492225528344285e-05
-5.3736507209888505e-05
-6.751509880216745e-05
-7.85379720759906e-05
-7.302653543907902e-05
-5.6492225528344285e-05
-5.098078889143272e-05
-5.9247943846800084e-05
-6.751509880216745e-05
-6.751509880216745e-05
-5.6492225528344285e-05
-4.5469352254521147e-05
-4.5469352254521147e-05
-5.098078889143272e-05
-5.9247943846800084e-05
-5.6492225528344285e-05
-5.098078889143272e-05
-5.3736507209888505e-05
-6.751509880216745e-05
-7.302653543907902e-05
-6.200366216525588e-05
-5.098078889143272e-05
-5.098078889143272e-05
-5.9247943846800084e-05
-6.751509880216745e-05
-6.200366216525588e-05
-4.5469352254521147e-05
-3.4446478980697995e-05
-3.4446478980697995e-05
-4.5469352254521147e-05
-4.2713633936065354e-05
-1.5156450751507488e-05
6.8892957961388014e-06
1.2400732433050376e-05
1.2400732433050376e-05
-1.377859159228559e-06
-6.889295796140132e-06
-9.64501411459592e-06
-1.5156450751507488e-05
-2.342360570687485e-05
-2.066788738841907e-05
-1.240073243305171e-05
-1.240073243305171e-05
-3.4446478980697995e-05
-6.200366216525588e-05
-7.302653543907902e-05
-6.475938048371164e-05
-5.3736507209888505e-05
-5.3736507209888505e-05
-6.751509880216745e-05
-7.302653543907902e-05
-6.200366216525588e-05
-3.995791561760957e-05
-3.995791561760957e-05
-5.6492225528344285e-05
-7.027081712062322e-05
-7.027081712062322e-05
-4.8225070572976926e-05
-5.6492225528344285e-05
-5.9247943846800084e-05
-5.9247943846800084e-05
-6.475938048371164e-05
-9.78280003051811e-05
-0.0001584538033112084
-0.00018601098649576628
-7.57822537575348e-05
0.00016672095826657444
0.0005387429312581057
0.0010017036087586776
0.0015087557793545424
0.0018504648508430599
0.0018146405127031347
0.0014729314412146172
0.0010595736934462493
0.0006544831006332488
0.0002769496910048059
5.9247943846798756e-05
2.3423605706873515e-05
3.720219729915245e-05
2.3423605706873515e-05
-6.889295796140132e-06
-2.066788738841907e-05
-1.7912169069963278e-05
-2.066788738841907e-05
-3.169076066224221e-05
-4.2713633936065354e-05
-4.2713633936065354e-05
-2.8935042343786426e-05
-2.342360570687485e-05
-2.8935042343786426e-05
-3.995791561760957e-05
-3.995791561760957e-05
-2.342360570687485e-05
-9.64501411459592e-06
-9.64501411459592e-06
-2.066788738841907e-05
-2.6179324025330647e-05
-1.240073243305171e-05
1.3778591592272275e-06
4.133577477683014e-06
-4.133577477684346e-06
-1.240073243305171e-05
-6.889295796140132e-06
9.64501411459459e-06
1.5156450751506162e-05
1.2400732433050376e-05
4.133577477683014e-06
4.133577477683014e-06
2.066788738841773e-05
3.720219729915245e-05
3.9957915617608246e-05
3.720219729915245e-05
3.444647898069667e-05
4.271363393606403e-05
5.373650720988717e-05
5.373650720988717e-05
4.271363393606403e-05
3.9957915617608246e-05
5.9247943846798756e-05
7.853797207598924e-05
7.578225375753347e-05
5.649222552834297e-05
6.751509880216611e-05
8.129369039444505e-05
8.68051270313566e-05
8.129369039444505e-05
7.578225375753347e-05
8.68051270313566e-05
0.00010885087357900291
0.00011711802853437029
0.00011160659189745871
0.00010333943694209132
0.00011160659189745871
0.00013365233844510492
0.00014467521171892812
0.00013640805676356078
0.00012262946517128183
0.00012814090180819342
0.00015018664835583973
0.0001694766765850302
0.00016396523994811866
0.00015018664835583973
0.00014467521171892812
0.0001556980849927513
0.00016672095826657444
0.00016396523994811866
0.00014467521171892812
0.00013089662012664922
0.00013640805676356078
0.00014743093003738393
0.00014467521171892812
0.00013089662012664922
0.00011711802853437029
0.00012262946517128183
0.00013365233844510492
0.00013365233844510492
0.00011711802853437029
9.23165636682682e-05
7.578225375753347e-05
7.578225375753347e-05
7.02708171206219e-05
4.546935225451981e-05
1.5156450751506162e-05
-6.889295796140132e-06
-9.64501411459592e-06
-6.889295796140132e-06
-2.066788738841907e-05
-4.2713633936065354e-05
-6.200366216525588e-05
-6.200366216525588e-05
-5.6492225528344285e-05
-5.9247943846800084e-05
-6.751509880216745e-05
-7.027081712062322e-05
-5.9247943846800084e-05
-5.3736507209888505e-05
-5.6492225528344285e-05
-6.200366216525588e-05
-6.475938048371164e-05
-5.6492225528344285e-05
-4.8225070572976926e-05
-4.8225070572976926e-05
-5.9247943846800084e-05
-6.475938048371164e-05
-6.200366216525588e-05
-4.8225070572976926e-05
-3.995791561760957e-05
-4.5469352254521147e-05
-5.9247943846800084e-05
-4.5469352254521147e-05
-3.169076066224221e-05
-2.8935042343786426e-05
-3.995791561760957e-05
-4.8225070572976926e-05
-3.995791561760957e-05
-2.8935042343786426e-05
-3.169076066224221e-05
-3.995791561760957e-05
-5.098078889143272e-05
-4.5469352254521147e-05
-3.4446478980697995e-05
-3.169076066224221e-05
-4.2713633936065354e-05
-5.9247943846800084e-05
-5.6492225528344285e-05
-3.720219729915378e-05
-3.169076066224221e-05
-3.995791561760957e-05
-5.098078889143272e-05
-5.098078889143272e-05
-3.995791561760957e-05
-3.720219729915378e-05
-4.5469352254521147e-05
-5.9247943846800084e-05
-6.200366216525588e-05
-5.098078889143272e-05
-4.2713633936065354e-05
-4.2713633936065354e-05
-4.2713633936065354e-05
-4.5469352254521147e-05
-4.5469352254521147e-05
-4.5469352254521147e-05
-5.3736507209888505e-05
-6.475938048371164e-05
-7.57822537575348e-05
-7.027081712062322e-05
-5.3736507209888505e-05
-4.8225070572976926e-05
-5.6492225528344285e-05
-7.302653543907902e-05
-7.302653543907902e-05
-5.3736507209888505e-05
-5.098078889143272e-05
-6.200366216525588e-05
-7.027081712062322e-05
-7.027081712062322e-05
-5.6492225528344285e-05
-4.8225070572976926e-05
-5.6492225528344285e-05
-7.027081712062322e-05
-7.57822537575348e-05
-6.475938048371164e-05
-5.098078889143272e-05
-5.9247943846800084e-05
-7.027081712062322e-05
-7.57822537575348e-05
-6.475938048371164e-05
-5.3736507209888505e-05
-5.3736507209888505e-05
-6.751509880216745e-05
-7.85379720759906e-05
-7.302653543907902e-05
-5.6492225528344285e-05
-6.475938048371164e-05
-7.027081712062322e-05
-7.027081712062322e-05
-5.9247943846800084e-05
-5.3736507209888505e-05
-6.200366216525588e-05
-7.57822537575348e-05
-7.57822537575348e-05
-5.9247943846800084e-05
-5.3736507209888505e-05
-5.9247943846800084e-05
-7.027081712062322e-05
-7.302653543907902e-05
-5.9247943846800084e-05
-5.098078889143272e-05
-5.3736507209888505e-05
-6.475938048371164e-05
-7.57822537575348e-05
-6.200366216525588e-05
-3.720219729915378e-05
-3.4446478980697995e-05
-5.6492225528344285e-05
-7.57822537575348e-05
-7.302653543907902e-05
-6.475938048371164e-05
-5.6492225528344285e-05
-6.200366216525588e-05
-7.302653543907902e-05
-7.302653543907902e-05
-6.200366216525588e-05
-5.3736507209888505e-05
-5.9247943846800084e-05
-7.027081712062322e-05
-6.751509880216745e-05
-5.6492225528344285e-05
-4.8225070572976926e-05
-5.6492225528344285e-05
-7.027081712062322e-05
-7.57822537575348e-05
-6.200366216525588e-05
-5.098078889143272e-05
-5.3736507209888505e-05
-5.9247943846800084e-05
-5.6492225528344285e-05
-4.2713633936065354e-05
-3.169076066224221e-05
-2.066788738841907e-05
-9.64501411459592e-06
-1.377859159228559e-06
9.64501411459459e-06
1.2400732433050376e-05
-1.377859159228559e-06
-2.342360570687485e-05
-3.4446478980697995e-05
-2.6179324025330647e-05
-1.240073243305171e-05
-6.889295796140132e-06
-2.066788738841907e-05
-5.098078889143272e-05
-6.475938048371164e-05
-5.098078889143272e-05
-3.995791561760957e-05
-4.5469352254521147e-05
-5.9247943846800084e-05
-6.475938048371164e-05
-5.3736507209888505e-05
-4.8225070572976926e-05
-6.475938048371164e-05
-7.027081712062322e-05
-5.9247943846800084e-05
-4.5469352254521147e-05
-4.8225070572976926e-05
-5.9247943846800084e-05
-6.751509880216745e-05
-5.9247943846800084e-05
-5.3736507209888505e-05
-8.129369039444639e-05
-0.000150186648355841
-0.0002190796063172357
-0.00018325526817731047
9.64501411459459e-06
0.00030450687418936376
0.0007068417486839086
0.0011918481727321271
0.0016823660334172573
0.001891800625619897
0.0017044117799649037
0.0012965654688334468
0.0008749405661097116
0.0004781171282520784
0.0001694766765850302
4.271363393606403e-05
2.8935042343785094e-05
2.6179324025329308e-05
9.64501411459459e-06
-1.377859159228559e-06
-1.377859159228559e-06
-1.240073243305171e-05
-2.8935042343786426e-05
-2.8935042343786426e-05
-1.7912169069963278e-05
-1.240073243305171e-05
-2.066788738841907e-05
-3.169076066224221e-05
-3.4446478980697995e-05
-2.8935042343786426e-05
-2.066788738841907e-05
-1.5156450751507488e-05
-1.7912169069963278e-05
-2.066788738841907e-05
-2.066788738841907e-05
-1.240073243305171e-05
-1.377859159228559e-06
-6.889295796140132e-06
-1.5156450751507488e-05
-1.5156450751507488e-05
-4.133577477684346e-06
1.2400732433050376e-05
1.2400732433050376e-05
4.133577477683014e-06
4.133577477683014e-06
2.066788738841773e-05
3.720219729915245e-05
3.720219729915245e-05
2.8935042343785094e-05
2.066788738841773e-05
2.066788738841773e-05
3.720219729915245e-05
4.82250705729756e-05
3.9957915617608246e-05
2.3423605706873515e-05
5.649222552834297e-05
6.751509880216611e-05
6.200366216525454e-05
5.098078889143139e-05
5.098078889143139e-05
6.751509880216611e-05
8.404940871290084e-05
8.68051270313566e-05
7.853797207598924e-05
7.578225375753347e-05
9.23165636682682e-05
0.00010609515526054714
0.00011160659189745871
0.00010609515526054714
0.00010058371862363556
0.00011436231021591448
0.00013089662012664922
0.00013640805676356078
0.0001253851834897376
0.00011711802853437029
0.00012814090180819342
0.00014743093003738393
0.0001556980849927513
0.00014743093003738393
0.00013916377508201656
0.00014191949340047234
0.0001556980849927513
0.00015845380331120705
0.00014743093003738393
0.00013640805676356078
0.00013916377508201656
0.0001556980849927513
0.00015294236667429551
0.00013365233844510492
0.00011711802853437029
0.00010885087357900291
0.00011711802853437029
0.0001253851834897376
0.00012262946517128183
0.00010609515526054714
8.956084534981241e-05
8.129369039444505e-05
7.853797207598924e-05
5.649222552834297e-05
2.3423605706873515e-05
-4.133577477684346e-06
-1.240073243305171e-05
-1.240073243305171e-05
-1.7912169069963278e-05
-3.995791561760957e-05
-6.475938048371164e-05
-8.129369039444639e-05
-7.85379720759906e-05
-7.027081712062322e-05
-7.302653543907902e-05
-8.404940871290214e-05
-8.680512703135793e-05
-7.302653543907902e-05
-6.475938048371164e-05
-7.57822537575348e-05
-8.680512703135793e-05
-9.231656366826955e-05
-8.129369039444639e-05
-6.200366216525588e-05
-6.200366216525588e-05
-6.751509880216745e-05
-6.751509880216745e-05
-5.098078889143272e-05
-4.8225070572976926e-05
-5.9247943846800084e-05
-7.027081712062322e-05
-6.200366216525588e-05
-4.8225070572976926e-05
-4.5469352254521147e-05
-5.098078889143272e-05
-6.200366216525588e-05
-6.475938048371164e-05
-4.8225070572976926e-05
-3.995791561760957e-05
-4.2713633936065354e-05
-5.3736507209888505e-05
-5.9247943846800084e-05
-4.2713633936065354e-05
-3.169076066224221e-05
-3.720219729915378e-05
-5.098078889143272e-05
-5.9247943846800084e-05
-4.8225070572976926e-05
-3.720219729915378e-05
-4.5469352254521147e-05
-5.6492225528344285e-05
-6.475938048371164e-05
-5.9247943846800084e-05
-4.8225070572976926e-05
-4.8225070572976926e-05
-5.3736507209888505e-05
-5.3736507209888505e-05
-5.098078889143272e-05
-4.2713633936065354e-05
-3.995791561760957e-05
-4.8225070572976926e-05
-7.027081712062322e-05
-7.85379720759906e-05
-6.475938048371164e-05
-5.098078889143272e-05
-4.8225070572976926e-05
-6.200366216525588e-05
-7.302653543907902e-05
-6.751509880216745e-05
-5.9247943846800084e-05
-6.475938048371164e-05
-7.302653543907902e-05
-7.85379720759906e-05
-6.751509880216745e-05
-5.6492225528344285e-05
-5.9247943846800084e-05
-7.027081712062322e-05
-7.85379720759906e-05
-7.57822537575348e-05
-6.200366216525588e-05
-5.6492225528344285e-05
-6.751509880216745e-05
-8.129369039444639e-05
-8.129369039444639e-05
-6.751509880216745e-05
-6.200366216525588e-05
-7.027081712062322e-05
-8.129369039444639e-05
-7.85379720759906e-05
-5.6492225528344285e-05
-4.5469352254521147e-05
-7.85379720759906e-05
-8.680512703135793e-05
-7.85379720759906e-05
-6.751509880216745e-05
-6.200366216525588e-05
-6.751509880216745e-05
-7.85379720759906e-05
-7.57822537575348e-05
-6.475938048371164e-05
-6.751509880216745e-05
-7.57822537575348e-05
-8.680512703135793e-05
-8.129369039444639e-05
-6.475938048371164e-05
-6.200366216525588e-05
-6.751509880216745e-05
-7.85379720759906e-05
-7.57822537575348e-05
-5.9247943846800084e-05
-5.9247943846800084e-05
-7.302653543907902e-05
-8.404940871290214e-05
-8.129369039444639e-05
-6.475938048371164e-05
-5.6492225528344285e-05
-6.475938048371164e-05
-7.57822537575348e-05
-7.85379720759906e-05
-6.475938048371164e-05
-5.3736507209888505e-05
-5.9247943846800084e-05
-7.027081712062322e-05
-8.129369039444639e-05
-7.027081712062322e-05
-5.3736507209888505e-05
-5.6492225528344285e-05
-7.027081712062322e-05
-8.129369039444639e-05
-7.57822537575348e-05
-5.9247943846800084e-05
-5.9247943846800084e-05
-7.027081712062322e-05
-8.129369039444639e-05
-7.57822537575348e-05
-5.3736507209888505e-05
-4.2713633936065354e-05
-3.995791561760957e-05
-4.5469352254521147e-05
-4.2713633936065354e-05
-1.7912169069963278e-05
9.64501411459459e-06
2.066788738841773e-05
6.8892957961388014e-06
-1.240073243305171e-05
-1.7912169069963278e-05
-1.7912169069963278e-05
-2.066788738841907e-05
-2.8935042343786426e-05
-3.169076066224221e-05
-2.342360570687485e-05
-2.342360570687485e-05
-3.995791561760957e-05
-6.200366216525588e-05
-7.302653543907902e-05
-6.751509880216745e-05
-5.098078889143272e-05
-6.200366216525588e-05
-7.85379720759906e-05
-7.57822537575348e-05
-5.6492225528344285e-05
-4.8225070572976926e-05
-5.9247943846800084e-05
-6.751509880216745e-05
-6.475938048371164e-05
-5.098078889143272e-05
-4.2713633936065354e-05
-4.2713633936065354e-05
-5.098078889143272e-05
-6.475938048371164e-05
-9.231656366826955e-05
-0.0001336523384451063
-0.00017223239490348733
-0.0001336523384451063
6.8892957961388014e-06
0.0002576596627756154
0.0006351930724040583
0.0011339780880445555
0.0015473358358129234
0.0015611144274052025
0.0012607411306935217
0.0008749405661097116
0.0005497658045319286
0.000263171099412527
4.82250705729756e-05
-9.64501411459592e-06
1.5156450751506162e-05
3.720219729915245e-05
2.8935042343785094e-05
4.133577477683014e-06
-1.5156450751507488e-05
-1.5156450751507488e-05
-9.64501411459592e-06
-1.7912169069963278e-05
-2.8935042343786426e-05
-2.8935042343786426e-05
-2.066788738841907e-05
-6.889295796140132e-06
-1.240073243305171e-05
-2.066788738841907e-05
-1.5156450751507488e-05
-4.133577477684346e-06
9.64501411459459e-06
1.2400732433050376e-05
6.8892957961388014e-06
1.3778591592272275e-06
4.133577477683014e-06
1.7912169069961946e-05
1.7912169069961946e-05
9.64501411459459e-06
1.3778591592272275e-06
1.2400732433050376e-05
3.169076066224089e-05
3.169076066224089e-05
2.066788738841773e-05
1.5156450751506162e-05
2.6179324025329308e-05
4.271363393606403e-05
5.098078889143139e-05
4.82250705729756e-05
3.9957915617608246e-05
3.9957915617608246e-05
7.02708171206219e-05
7.02708171206219e-05
6.475938048371032e-05
6.200366216525454e-05
7.30265354390777e-05
8.956084534981241e-05
9.23165636682682e-05
8.404940871290084e-05
7.853797207598924e-05
8.68051270313566e-05
0.00010333943694209132
0.00011160659189745871
0.00010609515526054714
9.782800030517979e-05
0.00010609515526054714
0.00012814090180819342
0.00013916377508201656
0.00013640805676356078
0.00013089662012664922
0.00013089662012664922
0.00015018664835583973
0.00016396523994811866
0.00016672095826657444
0.0001556980849927513
0.0001556980849927513
0.00017774383154039756
0.00019152242313267648
0.0001832552681773092
0.00016120952162966288
0.00014743093003738393
0.0001556980849927513
0.00016120952162966288
0.0001556980849927513
0.00014191949340047234
0.00013365233844510492
0.00013365233844510492
0.00014743093003738393
0.00015018664835583973
0.00013916377508201656
0.00013089662012664922
0.0001253851834897376
0.00013640805676356078
0.00013089662012664922
0.00010885087357900291
8.129369039444505e-05
5.9247943846798756e-05
5.649222552834297e-05
4.546935225451981e-05
2.066788738841773e-05
-1.240073243305171e-05
-3.720219729915378e-05
-4.2713633936065354e-05
-4.5469352254521147e-05
-5.6492225528344285e-05
-7.302653543907902e-05
-8.680512703135793e-05
-7.85379720759906e-05
-6.475938048371164e-05
-7.027081712062322e-05
-8.680512703135793e-05
-9.78280003051811e-05
-9.231656366826955e-05
-7.57822537575348e-05
-6.751509880216745e-05
-7.85379720759906e-05
-8.680512703135793e-05
-6.751509880216745e-05
-5.9247943846800084e-05
-6.200366216525588e-05
-7.027081712062322e-05
-7.027081712062322e-05
-5.6492225528344285e-05
-4.5469352254521147e-05
-4.8225070572976926e-05
-6.200366216525588e-05
-6.751509880216745e-05
-5.3736507209888505e-05
-3.995791561760957e-05
-4.2713633936065354e-05
-5.3736507209888505e-05
-6.200366216525588e-05
-5.098078889143272e-05
-3.720219729915378e-05
-3.720219729915378e-05
-4.8225070572976926e-05
-5.6492225528344285e-05
-5.3736507209888505e-05
-3.995791561760957e-05
-3.169076066224221e-05
-4.2713633936065354e-05
-5.9247943846800084e-05
-6.200366216525588e-05
-4.5469352254521147e-05
-3.995791561760957e-05
-4.5469352254521147e-05
-6.200366216525588e-05
-7.027081712062322e-05
-5.6492225528344285e-05
-4.5469352254521147e-05
-4.8225070572976926e-05
-5.9247943846800084e-05
-6.751509880216745e-05
-5.9247943846800084e-05
-5.098078889143272e-05
-5.3736507209888505e-05
-6.200366216525588e-05
-7.302653543907902e-05
-6.751509880216745e-05
-5.3736507209888505e-05
-5.3736507209888505e-05
-6.475938048371164e-05
-6.751509880216745e-05
-5.9247943846800084e-05
-5.3736507209888505e-05
-5.6492225528344285e-05
-7.302653543907902e-05
-8.956084534981374e-05
-8.956084534981374e-05
-7.027081712062322e-05
-6.200366216525588e-05
-6.751509880216745e-05
-7.85379720759906e-05
-8.129369039444639e-05
-7.302653543907902e-05
-5.9247943846800084e-05
-5.9247943846800084e-05
-7.027081712062322e-05
-7.85379720759906e-05
-7.302653543907902e-05
-6.475938048371164e-05
-6.751509880216745e-05
-7.85379720759906e-05
-6.751509880216745e-05
-6.200366216525588e-05
-7.027081712062322e-05
-8.129369039444639e-05
-8.956084534981374e-05
-8.680512703135793e-05
-7.027081712062322e-05
-6.200366216525588e-05
-7.027081712062322e-05
-8.404940871290214e-05
-8.129369039444639e-05
-6.475938048371164e-05
-5.6492225528344285e-05
-6.751509880216745e-05
-8.404940871290214e-05
-8.680512703135793e-05
-7.302653543907902e-05
-6.475938048371164e-05
-7.027081712062322e-05
-8.680512703135793e-05
-9.231656366826955e-05
-8.129369039444639e-05
-7.027081712062322e-05
-7.302653543907902e-05
-8.404940871290214e-05
-9.231656366826955e-05
-8.404940871290214e-05
-7.027081712062322e-05
-7.027081712062322e-05
-8.129369039444639e-05
-8.956084534981374e-05
-8.680512703135793e-05
-7.027081712062322e-05
-6.475938048371164e-05
-7.027081712062322e-05
-8.129369039444639e-05
-8.129369039444639e-05
-6.751509880216745e-05
-6.751509880216745e-05
-7.302653543907902e-05
-8.404940871290214e-05
-8.680512703135793e-05
-6.751509880216745e-05
-5.098078889143272e-05
-5.098078889143272e-05
-5.9247943846800084e-05
-6.200366216525588e-05
-3.995791561760957e-05
-6.889295796140132e-06
1.2400732433050376e-05
4.133577477683014e-06
-1.7912169069963278e-05
-3.169076066224221e-05
-2.8935042343786426e-05
-2.8935042343786426e-05
-2.8935042343786426e-05
-2.6179324025330647e-05
-2.6179324025330647e-05
-2.342360570687485e-05
-3.720219729915378e-05
-5.6492225528344285e-05
-7.57822537575348e-05
-8.129369039444639e-05
-7.027081712062322e-05
-6.475938048371164e-05
-8.404940871290214e-05
-8.680512703135793e-05
-7.57822537575348e-05
-5.3736507209888505e-05
-5.3736507209888505e-05
-6.751509880216745e-05
-7.85379720759906e-05
-7.027081712062322e-05
-5.9247943846800084e-05
-5.9247943846800084e-05
-7.027081712062322e-05
-8.404940871290214e-05
-0.00010885087357900426
-0.00014743093003738526
-0.00019152242313267784
-0.00014743093003738526
3.444647898069667e-05
0.0003430869306477448
0.0007647118333714802
0.0012524739757381546
0.0017181903715571825
0.001891800625619897
0.0016740988784618896
0.0012690082856488892
0.000858406256198977
0.0004615828183413437
0.00013365233844510492
-1.5156450751507488e-05
-9.64501411459592e-06
1.7912169069961946e-05
9.64501411459459e-06
-1.7912169069963278e-05
-4.5469352254521147e-05
-5.098078889143272e-05
-4.5469352254521147e-05
-4.2713633936065354e-05
-4.5469352254521147e-05
-5.3736507209888505e-05
-5.098078889143272e-05
-3.995791561760957e-05
-3.720219729915378e-05
-4.2713633936065354e-05
-4.5469352254521147e-05
-3.720219729915378e-05
-3.169076066224221e-05
-2.8935042343786426e-05
-3.4446478980697995e-05
-4.5469352254521147e-05
-4.5469352254521147e-05
-2.8935042343786426e-05
-1.7912169069963278e-05
-1.7912169069963278e-05
-2.6179324025330647e-05
-2.6179324025330647e-05
-6.889295796140132e-06
6.8892957961388014e-06
6.8892957961388014e-06
-1.377859159228559e-06
-9.64501411459592e-06
1.3778591592272275e-06
1.7912169069961946e-05
2.3423605706873515e-05
1.7912169069961946e-05
1.2400732433050376e-05
2.3423605706873515e-05
4.546935225451981e-05
3.9957915617608246e-05
3.444647898069667e-05
3.720219729915245e-05
5.373650720988717e-05
6.475938048371032e-05
5.9247943846798756e-05
5.098078889143139e-05
5.649222552834297e-05
7.30265354390777e-05
8.404940871290084e-05
8.404940871290084e-05
7.853797207598924e-05
8.129369039444505e-05
9.782800030517979e-05
0.00011436231021591448
0.00011711802853437029
0.00010885087357900291
0.00010333943694209132
0.00011711802853437029
0.00013089662012664922
0.00013640805676356078
0.00013365233844510492
0.00012814090180819342
0.00013640805676356078
0.0001556980849927513
0.00015845380331120705
0.00014743093003738393
0.00013365233844510492
0.00013365233844510492
0.00014743093003738393
0.00014743093003738393
0.00013916377508201656
0.00012262946517128183
0.00011160659189745871
0.00012262946517128183
0.00013640805676356078
0.00013089662012664922
0.00011436231021591448
0.00010885087357900291
0.00011436231021591448
0.00011987374685282605
0.00010609515526054714
7.853797207598924e-05
4.82250705729756e-05
4.271363393606403e-05
4.82250705729756e-05
3.720219729915245e-05
1.3778591592272275e-06
-3.720219729915378e-05
-5.098078889143272e-05
-5.098078889143272e-05
-5.9247943846800084e-05
-7.85379720759906e-05
-9.507228198672531e-05
-9.231656366826955e-05
-7.302653543907902e-05
-7.302653543907902e-05
-8.129369039444639e-05
-9.78280003051811e-05
-0.00010058371862363688
-8.956084534981374e-05
-8.404940871290214e-05
-8.680512703135793e-05
-9.507228198672531e-05
-9.78280003051811e-05
-7.027081712062322e-05
-7.302653543907902e-05
-8.129369039444639e-05
-8.129369039444639e-05
-7.027081712062322e-05
-6.475938048371164e-05
-7.027081712062322e-05
-7.85379720759906e-05
-8.129369039444639e-05
-7.85379720759906e-05
-5.9247943846800084e-05
-5.6492225528344285e-05
-6.200366216525588e-05
-7.302653543907902e-05
-7.027081712062322e-05
-5.6492225528344285e-05
-5.098078889143272e-05
-6.200366216525588e-05
-7.57822537575348e-05
-7.85379720759906e-05
-6.200366216525588e-05
-5.3736507209888505e-05
-6.200366216525588e-05
-7.57822537575348e-05
-7.85379720759906e-05
-6.475938048371164e-05
-5.3736507209888505e-05
-6.200366216525588e-05
-7.302653543907902e-05
-8.129369039444639e-05
-7.57822537575348e-05
-6.475938048371164e-05
-6.751509880216745e-05
-8.129369039444639e-05
-9.231656366826955e-05
-9.231656366826955e-05
-7.57822537575348e-05
-7.027081712062322e-05
-7.85379720759906e-05
-9.231656366826955e-05
-8.956084534981374e-05
-7.57822537575348e-05
-6.751509880216745e-05
-7.302653543907902e-05
-8.680512703135793e-05
-8.956084534981374e-05
-7.85379720759906e-05
-7.302653543907902e-05
-7.57822537575348e-05
-8.956084534981374e-05
-9.78280003051811e-05
-8.680512703135793e-05
-7.57822537575348e-05
-8.129369039444639e-05
-9.231656366826955e-05
-9.78280003051811e-05
-8.404940871290214e-05
-5.9247943846800084e-05
-5.9247943846800084e-05
-7.85379720759906e-05
-9.78280003051811e-05
-9.507228198672531e-05
-8.129369039444639e-05
-7.85379720759906e-05
-8.956084534981374e-05
-9.231656366826955e-05
-7.85379720759906e-05
-7.302653543907902e-05
-8.129369039444639e-05
-9.231656366826955e-05
-9.507228198672531e-05
-8.129369039444639e-05
-7.027081712062322e-05
-7.57822537575348e-05
-8.956084534981374e-05
-9.507228198672531e-05
-8.404940871290214e-05
-7.302653543907902e-05
-7.027081712062322e-05
-8.680512703135793e-05
-9.78280003051811e-05
-8.956084534981374e-05
-7.85379720759906e-05
-7.85379720759906e-05
-8.956084534981374e-05
-9.78280003051811e-05
-9.507228198672531e-05
-7.85379720759906e-05
-7.302653543907902e-05
-7.85379720759906e-05
-8.404940871290214e-05
-8.404940871290214e-05
-7.57822537575348e-05
-7.027081712062322e-05
-7.85379720759906e-05
-9.231656366826955e-05
-9.78280003051811e-05
-8.404940871290214e-05
-7.027081712062322e-05
-7.57822537575348e-05
-8.956084534981374e-05
-9.507228198672531e-05
-8.404940871290214e-05
-7.302653543907902e-05
-7.85379720759906e-05
-8.956084534981374e-05
-9.78280003051811e-05
-8.956084534981374e-05
-7.57822537575348e-05
-7.85379720759906e-05
-8.956084534981374e-05
-9.231656366826955e-05
-8.404940871290214e-05
-6.751509880216745e-05
-6.200366216525588e-05
-6.200366216525588e-05
-5.6492225528344285e-05
-3.720219729915378e-05
-2.066788738841907e-05
-2.342360570687485e-05
-3.995791561760957e-05
-5.3736507209888505e-05
-5.6492225528344285e-05
-4.5469352254521147e-05
-4.2713633936065354e-05
-5.098078889143272e-05
-7.027081712062322e-05
-8.404940871290214e-05
-8.404940871290214e-05
-7.302653543907902e-05
-7.027081712062322e-05
-8.129369039444639e-05
-8.129369039444639e-05
-7.027081712062322e-05
-7.57822537575348e-05
-9.507228198672531e-05
-0.00010609515526054846
-0.00010058371862363688
-8.404940871290214e-05
-7.85379720759906e-05
-8.680512703135793e-05
-9.507228198672531e-05
-9.507228198672531e-05
-8.129369039444639e-05
-8.404940871290214e-05
-0.00012814090180819475
-0.0001997895780880452
-0.00023561391622797047
-0.00012814090180819475
0.00010885087357900291
0.0004505599450675205
0.0008859634393835348
0.0013930156099793995
0.001806373357747768
0.0018477091325246043
0.001530801525902189
0.0010953980315861747
0.0006847960021362622
0.00031001831082627527
6.475938048371032e-05
-6.889295796140132e-06
-9.64501411459592e-06
-1.5156450751507488e-05
-2.066788738841907e-05
-2.342360570687485e-05
-3.4446478980697995e-05
-5.3736507209888505e-05
-7.302653543907902e-05
-7.57822537575348e-05
-6.200366216525588e-05
-5.3736507209888505e-05
-5.6492225528344285e-05
-7.027081712062322e-05
-7.302653543907902e-05
-5.6492225528344285e-05
-3.995791561760957e-05
-3.995791561760957e-05
-5.098078889143272e-05
-5.6492225528344285e-05
-4.5469352254521147e-05
-3.169076066224221e-05
-2.8935042343786426e-05
-3.4446478980697995e-05
-4.2713633936065354e-05
-3.169076066224221e-05
-1.7912169069963278e-05
-1.5156450751507488e-05
-2.066788738841907e-05
-2.6179324025330647e-05
-2.066788738841907e-05
-4.133577477684346e-06
6.8892957961388014e-06
6.8892957961388014e-06
9.64501411459459e-06
1.5156450751506162e-05
2.6179324025329308e-05
2.066788738841773e-05
9.64501411459459e-06
4.133577477683014e-06
2.3423605706873515e-05
3.9957915617608246e-05
4.82250705729756e-05
4.271363393606403e-05
3.169076066224089e-05
3.720219729915245e-05
5.098078889143139e-05
6.200366216525454e-05
5.9247943846798756e-05
5.098078889143139e-05
5.649222552834297e-05
7.30265354390777e-05
7.853797207598924e-05
7.853797207598924e-05
8.129369039444505e-05
9.23165636682682e-05
0.00010885087357900291
0.00011711802853437029
0.00011160659189745871
9.507228198672396e-05
0.00010058371862363556
0.00012262946517128183
0.00013089662012664922
0.00012814090180819342
0.00011711802853437029
0.00011436231021591448
0.0001253851834897376
0.00013640805676356078
0.00013089662012664922
0.00011436231021591448
0.00010333943694209132
0.00010333943694209132
0.00011436231021591448
0.00011436231021591448
0.00010333943694209132
9.23165636682682e-05
9.782800030517979e-05
0.00010609515526054714
0.00010609515526054714
9.23165636682682e-05
7.02708171206219e-05
5.9247943846798756e-05
5.649222552834297e-05
4.546935225451981e-05
2.3423605706873515e-05
-6.889295796140132e-06
-2.6179324025330647e-05
-3.169076066224221e-05
-4.2713633936065354e-05
-6.200366216525588e-05
-8.680512703135793e-05
-0.00010058371862363688
-9.78280003051811e-05
-8.956084534981374e-05
-9.231656366826955e-05
-0.00010058371862363688
-0.00010609515526054846
-9.507228198672531e-05
-7.85379720759906e-05
-8.129369039444639e-05
-9.231656366826955e-05
-0.00010333943694209268
-0.00010333943694209268
-7.85379720759906e-05
-8.680512703135793e-05
-9.78280003051811e-05
-9.231656366826955e-05
-7.57822537575348e-05
-7.027081712062322e-05
-7.027081712062322e-05
-7.302653543907902e-05
-7.027081712062322e-05
-6.751509880216745e-05
-6.200366216525588e-05
-5.9247943846800084e-05
-7.85379720759906e-05
-9.231656366826955e-05
-8.129369039444639e-05
-7.027081712062322e-05
-7.302653543907902e-05
-8.129369039444639e-05
-8.680512703135793e-05
-7.57822537575348e-05
-6.475938048371164e-05
-6.751509880216745e-05
-7.85379720759906e-05
-8.680512703135793e-05
-8.129369039444639e-05
-6.751509880216745e-05
-6.475938048371164e-05
-7.302653543907902e-05
-8.680512703135793e-05
-8.404940871290214e-05
-7.302653543907902e-05
-7.027081712062322e-05
-7.85379720759906e-05
-8.956084534981374e-05
-9.231656366826955e-05
-8.129369039444639e-05
-7.027081712062322e-05
-7.57822537575348e-05
-8.956084534981374e-05
-9.507228198672531e-05
-8.956084534981374e-05
-7.57822537575348e-05
-7.57822537575348e-05
-8.956084534981374e-05
-9.78280003051811e-05
-9.231656366826955e-05
-8.129369039444639e-05
-8.129369039444639e-05
-8.680512703135793e-05
-9.231656366826955e-05
-8.404940871290214e-05
-7.57822537575348e-05
-7.57822537575348e-05
-8.129369039444639e-05
-9.507228198672531e-05
-0.00010058371862363688
-8.404940871290214e-05
-7.302653543907902e-05
-8.680512703135793e-05
-0.00010609515526054846
-0.00010885087357900426
-9.231656366826955e-05
-8.404940871290214e-05
-8.956084534981374e-05
-0.00010058371862363688
-9.231656366826955e-05
-8.129369039444639e-05
-7.85379720759906e-05
-8.680512703135793e-05
-9.78280003051811e-05
-9.231656366826955e-05
-8.404940871290214e-05
-8.129369039444639e-05
-8.956084534981374e-05
-0.00010609515526054846
-9.78280003051811e-05
-8.404940871290214e-05
-7.85379720759906e-05
-8.404940871290214e-05
-9.78280003051811e-05
-9.78280003051811e-05
-8.404940871290214e-05
-7.85379720759906e-05
-8.404940871290214e-05
-9.78280003051811e-05
-0.00010058371862363688
-9.231656366826955e-05
-8.129369039444639e-05
-8.680512703135793e-05
-9.78280003051811e-05
-0.00010333943694209268
-9.231656366826955e-05
-7.85379720759906e-05
-7.85379720759906e-05
-9.231656366826955e-05
-0.00010058371862363688
-9.231656366826955e-05
-7.85379720759906e-05
-7.85379720759906e-05
-9.231656366826955e-05
-0.00010333943694209268
-9.78280003051811e-05
-8.129369039444639e-05
-7.85379720759906e-05
-8.680512703135793e-05
-9.78280003051811e-05
-9.231656366826955e-05
-7.85379720759906e-05
-7.027081712062322e-05
-7.85379720759906e-05
-9.231656366826955e-05
-9.507228198672531e-05
-8.129369039444639e-05
-7.302653543907902e-05
-7.302653543907902e-05
-7.302653543907902e-05
-7.302653543907902e-05
-6.200366216525588e-05
-4.8225070572976926e-05
-3.720219729915378e-05
-3.169076066224221e-05
-3.169076066224221e-05
-3.169076066224221e-05
-3.169076066224221e-05
-4.5469352254521147e-05
-6.200366216525588e-05
-7.027081712062322e-05
-6.475938048371164e-05
-4.8225070572976926e-05
-4.2713633936065354e-05
-8.680512703135793e-05
-9.231656366826955e-05
-7.85379720759906e-05
-6.751509880216745e-05
-7.57822537575348e-05
-9.231656366826955e-05
-8.680512703135793e-05
-6.751509880216745e-05
-5.9247943846800084e-05
-7.302653543907902e-05
-8.680512703135793e-05
-8.956084534981374e-05
-8.404940871290214e-05
-7.302653543907902e-05
-7.302653543907902e-05
-8.129369039444639e-05
-8.680512703135793e-05
-8.680512703135793e-05
-0.00010333943694209268
-0.0001584538033112084
-0.00022459104295414727
-0.00020530101472495681
-2.6179324025330647e-05
0.00026592681773098274
0.0006710174105439835
0.0011560238345922017
0.0016382745403219644
0.001842197695887693
0.0016658317235065223
0.0012690082856488892
0.000858406256198977
0.0004588271000228878
0.00013640805676356078
4.133577477683014e-06
-1.377859159228559e-06
-1.377859159228559e-06
-1.7912169069963278e-05
-3.995791561760957e-05
-4.8225070572976926e-05
-4.5469352254521147e-05
-5.098078889143272e-05
-6.475938048371164e-05
-7.57822537575348e-05
-7.027081712062322e-05
-5.3736507209888505e-05
-5.098078889143272e-05
-6.200366216525588e-05
-6.751509880216745e-05
-6.200366216525588e-05
-4.2713633936065354e-05
-2.8935042343786426e-05
-3.169076066224221e-05
-4.5469352254521147e-05
-5.098078889143272e-05
-3.4446478980697995e-05
-2.6179324025330647e-05
-3.169076066224221e-05
-4.2713633936065354e-05
-3.995791561760957e-05
-2.342360570687485e-05
-1.240073243305171e-05
-1.5156450751507488e-05
-2.342360570687485e-05
-2.8935042343786426e-05
-1.5156450751507488e-05
1.3778591592272275e-06
-6.889295796140132e-06
-9.64501411459592e-06
-1.377859159228559e-06
1.5156450751506162e-05
2.3423605706873515e-05
1.5156450751506162e-05
9.64501411459459e-06
1.7912169069961946e-05
3.444647898069667e-05
4.271363393606403e-05
3.9957915617608246e-05
3.444647898069667e-05
3.9957915617608246e-05
5.373650720988717e-05
6.475938048371032e-05
5.9247943846798756e-05
5.098078889143139e-05
5.649222552834297e-05
7.578225375753347e-05
9.23165636682682e-05
9.23165636682682e-05
8.129369039444505e-05
7.853797207598924e-05
9.507228198672396e-05
0.00011160659189745871
0.00011436231021591448
0.00010885087357900291
0.00010333943694209132
0.00011160659189745871
0.00013089662012664922
0.00013089662012664922
0.00011987374685282605
0.00010885087357900291
0.00011160659189745871
0.00012814090180819342
0.00013089662012664922
0.00011987374685282605
0.00010333943694209132
9.782800030517979e-05
0.00010885087357900291
0.00011436231021591448
0.00010609515526054714
9.23165636682682e-05
8.68051270313566e-05
9.23165636682682e-05
0.00010058371862363556
8.956084534981241e-05
6.475938048371032e-05
4.271363393606403e-05
3.720219729915245e-05
3.444647898069667e-05
1.5156450751506162e-05
-9.64501411459592e-06
-2.6179324025330647e-05
-2.8935042343786426e-05
-3.720219729915378e-05
-6.475938048371164e-05
-8.956084534981374e-05
-0.00010609515526054846
-9.78280003051811e-05
-8.129369039444639e-05
-9.231656366826955e-05
-0.00010885087357900426
-0.0001226294651712832
-0.0001171180285343716
-7.85379720759906e-05
-8.129369039444639e-05
-0.00010058371862363688
-0.00010333943694209268
-9.231656366826955e-05
-8.956084534981374e-05
-8.956084534981374e-05
-9.78280003051811e-05
-9.507228198672531e-05
-8.129369039444639e-05
-7.302653543907902e-05
-7.57822537575348e-05
-8.680512703135793e-05
-9.507228198672531e-05
-8.956084534981374e-05
-7.302653543907902e-05
-6.475938048371164e-05
-7.027081712062322e-05
-8.404940871290214e-05
-8.404940871290214e-05
-7.302653543907902e-05
-7.027081712062322e-05
-7.85379720759906e-05
-8.956084534981374e-05
-8.680512703135793e-05
-7.302653543907902e-05
-6.475938048371164e-05
-7.302653543907902e-05
-8.680512703135793e-05
-9.231656366826955e-05
-7.85379720759906e-05
-6.475938048371164e-05
-7.027081712062322e-05
-8.129369039444639e-05
-8.680512703135793e-05
-7.57822537575348e-05
-7.027081712062322e-05
-6.751509880216745e-05
-8.129369039444639e-05
-9.507228198672531e-05
-9.231656366826955e-05
-7.85379720759906e-05
-7.57822537575348e-05
-8.956084534981374e-05
-9.78280003051811e-05
-9.231656366826955e-05
-7.85379720759906e-05
-7.302653543907902e-05
-8.680512703135793e-05
-0.00010333943694209268
-0.00010609515526054846
-9.507228198672531e-05
-8.680512703135793e-05
-9.231656366826955e-05
-0.00010609515526054846
-0.00010885087357900426
-0.00010058371862363688
-9.231656366826955e-05
-8.956084534981374e-05
-0.00010333943694209268
-0.00010885087357900426
-9.78280003051811e-05
-8.404940871290214e-05
-8.680512703135793e-05
-0.00010058371862363688
-0.00011436231021591582
-9.231656366826955e-05
-8.680512703135793e-05
-9.78280003051811e-05
-0.00010885087357900426
-0.00010333943694209268
-8.956084534981374e-05
-8.404940871290214e-05
-9.231656366826955e-05
-0.00010333943694209268
-0.00010609515526054846
-9.231656366826955e-05
-8.680512703135793e-05
-9.507228198672531e-05
-0.00010885087357900426
-0.00011436231021591582
-0.00010609515526054846
-9.231656366826955e-05
-9.507228198672531e-05
-0.00010885087357900426
-0.0001198737468528274
-0.00010609515526054846
-9.231656366826955e-05
-9.231656366826955e-05
-0.00010333943694209268
-0.00011160659189746003
-0.00010885087357900426
-9.507228198672531e-05
-9.231656366826955e-05
-0.00010333943694209268
-0.00011436231021591582
-0.00011160659189746003
-9.78280003051811e-05
-8.956084534981374e-05
-0.00010058371862363688
-0.00010885087357900426
-0.00010333943694209268
-7.85379720759906e-05
-6.475938048371164e-05
-7.85379720759906e-05
-0.00010333943694209268
-0.0001198737468528274
-0.00010609515526054846
-8.680512703135793e-05
-9.507228198672531e-05
-0.00011436231021591582
-0.0001198737468528274
-0.00010333943694209268
-8.129369039444639e-05
-8.404940871290214e-05
-0.00010058371862363688
-0.00010609515526054846
-9.231656366826955e-05
-7.57822537575348e-05
-7.302653543907902e-05
-7.57822537575348e-05
-6.475938048371164e-05
-4.2713633936065354e-05
-2.342360570687485e-05
-3.169076066224221e-05
-5.098078889143272e-05
-7.302653543907902e-05
-7.57822537575348e-05
-6.200366216525588e-05
-5.3736507209888505e-05
-6.200366216525588e-05
-0.00010333943694209268
-0.00010058371862363688
-8.956084534981374e-05
-9.507228198672531e-05
-0.00010609515526054846
-0.00011436231021591582
-0.00011160659189746003
-9.78280003051811e-05
-9.507228198672531e-05
-0.00010885087357900426
-0.0001171180285343716
-0.00011160659189746003
-9.78280003051811e-05
-8.956084534981374e-05
-0.00010058371862363688
-0.00010885087357900426
-0.00010058371862363688
-8.956084534981374e-05
-8.956084534981374e-05
-0.0001198737468528274
-0.00018325526817731047
-0.00023285819790951464
-0.00017498811322194308
-6.889295796140132e-06
0.00024112535286488067
0.0006103916075379561
0.0011174437781338207
0.0015721373006790259
0.0016382745403219644
0.0013434126802471958
0.0009162763408865484
0.0005497658045319286
0.00024663678950179223
3.9957915617608246e-05
-2.342360570687485e-05
-1.240073243305171e-05
-1.377859159228559e-06
-1.377859159228559e-06
-1.240073243305171e-05
-3.4446478980697995e-05
-5.9247943846800084e-05
-7.57822537575348e-05
-7.57822537575348e-05
-6.200366216525588e-05
-5.3736507209888505e-05
-5.9247943846800084e-05
-7.027081712062322e-05
-6.751509880216745e-05
-5.098078889143272e-05
-4.2713633936065354e-05
-4.5469352254521147e-05
-5.6492225528344285e-05
-5.6492225528344285e-05
-3.995791561760957e-05
-2.8935042343786426e-05
-3.169076066224221e-05
-3.995791561760957e-05
-4.5469352254521147e-05
-3.169076066224221e-05
-1.5156450751507488e-05
-1.5156450751507488e-05
-2.342360570687485e-05
-2.8935042343786426e-05
-2.066788738841907e-05
-4.133577477684346e-06
4.133577477683014e-06
-1.5156450751507488e-05
-1.240073243305171e-05
4.133577477683014e-06
1.2400732433050376e-05
6.8892957961388014e-06
-4.133577477684346e-06
-1.377859159228559e-06
1.5156450751506162e-05
2.6179324025329308e-05
2.3423605706873515e-05
1.7912169069961946e-05
1.7912169069961946e-05
2.6179324025329308e-05
4.546935225451981e-05
4.82250705729756e-05
3.9957915617608246e-05
3.720219729915245e-05
5.373650720988717e-05
7.02708171206219e-05
7.30265354390777e-05
6.475938048371032e-05
6.200366216525454e-05
7.02708171206219e-05
8.68051270313566e-05
9.507228198672396e-05
9.507228198672396e-05
8.956084534981241e-05
9.782800030517979e-05
0.00011436231021591448
0.00012262946517128183
0.00011987374685282605
0.00011160659189745871
0.00011160659189745871
0.00013365233844510492
0.00015018664835583973
0.00013640805676356078
0.00011436231021591448
0.00010885087357900291
0.00011436231021591448
0.00011436231021591448
9.782800030517979e-05
8.956084534981241e-05
8.68051270313566e-05
8.956084534981241e-05
9.507228198672396e-05
9.23165636682682e-05
8.129369039444505e-05
6.751509880216611e-05
5.9247943846798756e-05
5.098078889143139e-05
3.444647898069667e-05
1.2400732433050376e-05
-1.7912169069963278e-05
-4.2713633936065354e-05
-4.5469352254521147e-05
-5.3736507209888505e-05
-7.85379720759906e-05
-0.00011160659189746003
-0.00012538518348973897
-0.0001198737468528274
-0.00011160659189746003
-0.00011436231021591582
-0.00012814090180819475
-0.0001364080567635621
-0.00012538518348973897
-0.0001171180285343716
-0.0001336523384451063
-0.0001391637750820179
-0.00012538518348973897
-0.00010885087357900426
-0.00011160659189746003
-0.0001226294651712832
-0.0001336523384451063
-0.00012814090180819475
-0.00011160659189746003
-0.00010333943694209268
-0.00010885087357900426
-0.0001171180285343716
-0.0001171180285343716
-0.00010609515526054846
-9.507228198672531e-05
-9.78280003051811e-05
-0.00010609515526054846
-0.00010885087357900426
-0.00010058371862363688
-8.956084534981374e-05
-9.507228198672531e-05
-0.00010885087357900426
-0.00011436231021591582
-0.00010058371862363688
-8.680512703135793e-05
-8.956084534981374e-05
-0.00010609515526054846
-0.00011436231021591582
-0.00011160659189746003
-9.507228198672531e-05
-9.78280003051811e-05
-0.00010885087357900426
-0.0001171180285343716
-0.00011436231021591582
-9.78280003051811e-05
-9.231656366826955e-05
-0.00010333943694209268
-0.0001198737468528274
-0.0001198737468528274
-0.00010609515526054846
-0.00010058371862363688
-0.00010885087357900426
-0.0001198737468528274
-0.0001226294651712832
-0.00010885087357900426
-0.00010058371862363688
-0.00010333943694209268
-0.0001198737468528274
-0.00013089662012665053
-0.0001198737468528274
-0.00010609515526054846
-0.00010885087357900426
-0.0001226294651712832
-0.00013089662012665053
-0.0001226294651712832
-0.00010885087357900426
-0.00010609515526054846
-0.0001171180285343716
-0.00013089662012665053
-0.00013089662012665053
-0.0001171180285343716
-0.00010885087357900426
-0.0001198737468528274
-0.00013089662012665053
-0.00013089662012665053
-0.00011160659189746003
-0.0001171180285343716
-0.00013089662012665053
-0.0001336523384451063
-0.0001198737468528274
-0.00011160659189746003
-0.00011160659189746003
-0.00012538518348973897
-0.00013089662012665053
-0.0001198737468528274
-0.00010885087357900426
-0.00011160659189746003
-0.00012538518348973897
-0.0001336523384451063
-0.00012814090180819475
-0.00011436231021591582
-0.0001171180285343716
-0.00012538518348973897
-0.0001336523384451063
-0.00013089662012665053
-0.0001171180285343716
-0.00011160659189746003
-0.0001198737468528274
-0.00013089662012665053
-0.00013089662012665053
-0.00011436231021591582
-0.00010609515526054846
-0.0001171180285343716
-0.00013089662012665053
-0.0001336523384451063
-0.0001198737468528274
-0.00010885087357900426
-0.00011436231021591582
-0.00013089662012665053
-0.0001391637750820179
-0.00012814090180819475
-0.0001171180285343716
-0.0001198737468528274
-0.00013089662012665053
-0.0001364080567635621
-0.00013089662012665053
-0.0001198737468528274
-0.0001171180285343716
-0.00012814090180819475
-0.0001391637750820179
-0.0001336523384451063
-0.0001171180285343716
-0.00011436231021591582
-0.0001198737468528274
-0.00012814090180819475
-0.0001336523384451063
-0.0001226294651712832
-0.00011160659189746003
-0.0001171180285343716
-0.00012814090180819475
-0.00013089662012665053
-0.00011436231021591582
-9.78280003051811e-05
-9.78280003051811e-05
-0.00010609515526054846
-0.00010885087357900426
-8.956084534981374e-05
-5.6492225528344285e-05
-3.995791561760957e-05
-4.8225070572976926e-05
-8.129369039444639e-05
-7.85379720759906e-05
-7.57822537575348e-05
-7.85379720759906e-05
-8.680512703135793e-05
-8.404940871290214e-05
-7.57822537575348e-05
-8.680512703135793e-05
-0.00010885087357900426
-0.0001226294651712832
-0.0001226294651712832
-0.00011160659189746003
-0.00010333943694209268
-0.00011160659189746003
-0.00012814090180819475
-0.00012814090180819475
-0.00011436231021591582
-0.00010058371862363688
-0.00010333943694209268
-0.0001198737468528274
-0.00012538518348973897
-0.00011160659189746003
-9.507228198672531e-05
-9.507228198672531e-05
-0.00010609515526054846
-0.00012538518348973897
-0.000150186648355841
-0.00018876670481422206
-0.00023010247959105888
-0.00018876670481422206
-6.889295796140132e-06
0.00029623971923399637
0.0007206203402761877
0.0012166496375982292
0.0016933889066910802
0.0018697548790722507
0.0016520531319142435
0.0012497182574196988
0.0008391162279697863
0.0004340256351567857
0.00010058371862363556
-4.5469352254521147e-05
-3.995791561760957e-05
-1.7912169069963278e-05
-2.6179324025330647e-05
-5.6492225528344285e-05
-7.85379720759906e-05
-8.129369039444639e-05
-7.027081712062322e-05
-7.302653543907902e-05
-8.404940871290214e-05
-9.78280003051811e-05
-8.956084534981374e-05
-7.57822537575348e-05
-6.751509880216745e-05
-7.027081712062322e-05
-8.129369039444639e-05
-7.302653543907902e-05
-5.6492225528344285e-05
-5.098078889143272e-05
-5.9247943846800084e-05
-6.751509880216745e-05
-6.751509880216745e-05
-5.098078889143272e-05
-3.4446478980697995e-05
-3.995791561760957e-05
-5.9247943846800084e-05
-3.995791561760957e-05
-2.066788738841907e-05
-2.066788738841907e-05
-2.8935042343786426e-05
-3.169076066224221e-05
-1.7912169069963278e-05
1.3778591592272275e-06
4.133577477683014e-06
-6.889295796140132e-06
-1.240073243305171e-05
-1.377859159228559e-06
1.5156450751506162e-05
1.7912169069961946e-05
1.2400732433050376e-05
6.8892957961388014e-06
1.2400732433050376e-05
2.8935042343785094e-05
3.720219729915245e-05
3.444647898069667e-05
2.3423605706873515e-05
2.6179324025329308e-05
4.82250705729756e-05
5.649222552834297e-05
5.373650720988717e-05
4.271363393606403e-05
4.546935225451981e-05
6.751509880216611e-05
8.129369039444505e-05
7.853797207598924e-05
7.02708171206219e-05
6.751509880216611e-05
8.129369039444505e-05
9.782800030517979e-05
0.00010333943694209132
9.23165636682682e-05
8.68051270313566e-05
9.782800030517979e-05
0.00011436231021591448
0.00011711802853437029
0.00010609515526054714
9.507228198672396e-05
9.782800030517979e-05
0.00010885087357900291
0.00011160659189745871
0.00010058371862363556
8.404940871290084e-05
8.129369039444505e-05
9.507228198672396e-05
9.782800030517979e-05
8.956084534981241e-05
7.578225375753347e-05
7.02708171206219e-05
7.578225375753347e-05
7.853797207598924e-05
6.200366216525454e-05
3.169076066224089e-05
6.8892957961388014e-06
1.3778591592272275e-06
-1.377859159228559e-06
-2.066788738841907e-05
-5.098078889143272e-05
-7.57822537575348e-05
-8.404940871290214e-05
-8.404940871290214e-05
-0.00011160659189746003
-0.00012814090180819475
-0.00013089662012665053
-0.0001171180285343716
-0.00010885087357900426
-0.0001171180285343716
-0.00013089662012665053
-0.00013089662012665053
-0.00011436231021591582
-0.00010609515526054846
-0.00011436231021591582
-0.00012814090180819475
-0.00012814090180819475
-0.0001171180285343716
-0.00010058371862363688
-0.00010058371862363688
-0.00010885087357900426
-0.00011436231021591582
-0.00010333943694209268
-9.231656366826955e-05
-8.956084534981374e-05
-0.00010058371862363688
-0.00010609515526054846
-0.00010058371862363688
-8.404940871290214e-05
-8.404940871290214e-05
-9.231656366826955e-05
-0.00010058371862363688
-9.78280003051811e-05
-8.404940871290214e-05
-8.129369039444639e-05
-8.956084534981374e-05
-0.00010058371862363688
-0.00010333943694209268
-8.956084534981374e-05
-8.129369039444639e-05
-8.680512703135793e-05
-0.00010058371862363688
-0.00010885087357900426
-9.78280003051811e-05
-8.404940871290214e-05
-8.680512703135793e-05
-0.00010058371862363688
-0.00010885087357900426
-9.78280003051811e-05
-8.680512703135793e-05
-8.680512703135793e-05
-0.00010058371862363688
-0.00010885087357900426
-0.00010333943694209268
-9.507228198672531e-05
-9.507228198672531e-05
-0.00010609515526054846
-0.0001198737468528274
-0.0001171180285343716
-0.00010058371862363688
-9.507228198672531e-05
-0.00010609515526054846
-0.0001226294651712832
-0.00012538518348973897
-0.00011160659189746003
-0.00010058371862363688
-0.00010333943694209268
-0.0001171180285343716
-0.0001226294651712832
-0.00011436231021591582
-0.00010333943694209268
-0.00011436231021591582
-0.0001198737468528274
-0.00010885087357900426
-9.78280003051811e-05
-9.78280003051811e-05
-0.00010885087357900426
-0.0001226294651712832
-0.0001198737468528274
-0.00010885087357900426
-0.00010333943694209268
-0.00010885087357900426
-0.0001226294651712832
-0.0001198737468528274
-0.00010333943694209268
-0.00010058371862363688
-0.00010885087357900426
-0.0001171180285343716
-0.0001198737468528274
-0.00010609515526054846
-9.507228198672531e-05
-0.00010058371862363688
-0.00011160659189746003
-0.0001198737468528274
-0.00011160659189746003
-0.00010333943694209268
-0.00010885087357900426
-0.0001198737468528274
-0.00012538518348973897
-0.0001171180285343716
-0.00010333943694209268
-0.00010333943694209268
-0.0001171180285343716
-0.00012538518348973897
-0.0001198737468528274
-0.00010609515526054846
-0.00010609515526054846
-0.0001171180285343716
-0.00012538518348973897
-0.00012538518348973897
-0.00010885087357900426
-0.00010333943694209268
-0.00011160659189746003
-0.0001226294651712832
-0.0001226294651712832
-0.00010885087357900426
-0.00010058371862363688
-0.00010333943694209268
-0.00011160659189746003
-0.0001198737468528274
-0.00011160659189746003
-9.78280003051811e-05
-0.00010058371862363688
-0.00011160659189746003
-0.0001171180285343716
-0.00010609515526054846
-9.231656366826955e-05
-9.231656366826955e-05
-0.00010609515526054846
-0.00011436231021591582
-0.00011160659189746003
-0.00010058371862363688
-9.507228198672531e-05
-9.78280003051811e-05
-9.78280003051811e-05
-8.129369039444639e-05
-6.751509880216745e-05
-5.3736507209888505e-05
-4.5469352254521147e-05
-4.5469352254521147e-05
-4.2713633936065354e-05
-4.8225070572976926e-05
-6.200366216525588e-05
-7.85379720759906e-05
-7.85379720759906e-05
-6.475938048371164e-05
-5.6492225528344285e-05
-6.475938048371164e-05
-8.956084534981374e-05
-0.00010885087357900426
-0.00010058371862363688
-8.404940871290214e-05
-8.404940871290214e-05
-9.78280003051811e-05
-0.00011160659189746003
-0.00010609515526054846
-7.85379720759906e-05
-6.475938048371164e-05
-7.57822537575348e-05
-0.00010058371862363688
-0.00010333943694209268
-8.680512703135793e-05
-8.129369039444639e-05
-8.956084534981374e-05
-0.00010333943694209268
-0.00010333943694209268
-9.231656366826955e-05
-9.78280003051811e-05
-0.00014467521171892948
-0.0002218353246356915
-0.00024388107118333775
-0.0001171180285343716
0.00014191949340047234
0.0004974071564812689
0.0009383220874341949
0.0014481299763485153
0.0018284191042954136
0.0018284191042954136
0.0014839543144884403
0.0010457951018539703
0.0006269259174486908
0.00026041538109407124
3.720219729915245e-05
-2.066788738841907e-05
-2.066788738841907e-05
-3.4446478980697995e-05
-3.995791561760957e-05
-3.720219729915378e-05
-4.5469352254521147e-05
-6.475938048371164e-05
-8.404940871290214e-05
-8.680512703135793e-05
-7.57822537575348e-05
-6.751509880216745e-05
-7.302653543907902e-05
-8.404940871290214e-05
-8.956084534981374e-05
-7.302653543907902e-05
-5.9247943846800084e-05
-5.6492225528344285e-05
-6.751509880216745e-05
-5.9247943846800084e-05
-4.2713633936065354e-05
-4.5469352254521147e-05
-5.6492225528344285e-05
-5.9247943846800084e-05
-4.8225070572976926e-05
-2.8935042343786426e-05
-2.342360570687485e-05
-3.169076066224221e-05
-3.720219729915378e-05
-2.8935042343786426e-05
-9.64501411459592e-06
-1.377859159228559e-06
-6.889295796140132e-06
-1.7912169069963278e-05
-1.5156450751507488e-05
-1.377859159228559e-06
9.64501411459459e-06
9.64501411459459e-06
1.3778591592272275e-06
1.3778591592272275e-06
1.5156450751506162e-05
2.8935042343785094e-05
3.169076066224089e-05
2.3423605706873515e-05
1.7912169069961946e-05
3.169076066224089e-05
4.82250705729756e-05
5.098078889143139e-05
4.546935225451981e-05
3.9957915617608246e-05
5.098078889143139e-05
6.475938048371032e-05
7.578225375753347e-05
6.751509880216611e-05
5.9247943846798756e-05
6.475938048371032e-05
8.404940871290084e-05
9.507228198672396e-05
9.507228198672396e-05
8.68051270313566e-05
8.956084534981241e-05
0.00010609515526054714
0.00011987374685282605
0.00011711802853437029
0.00010885087357900291
0.00010609515526054714
0.00011987374685282605
0.00013089662012664922
0.0001253851834897376
0.00010885087357900291
9.782800030517979e-05
0.00010609515526054714
0.00011436231021591448
0.00010885087357900291
9.507228198672396e-05
8.129369039444505e-05
8.68051270313566e-05
0.00010609515526054714
0.00010609515526054714
8.956084534981241e-05
6.475938048371032e-05
5.098078889143139e-05
5.098078889143139e-05
3.720219729915245e-05
-1.7912169069963278e-05
-3.720219729915378e-05
-4.2713633936065354e-05
-5.098078889143272e-05
-7.027081712062322e-05
-9.231656366826955e-05
-0.00010885087357900426
-0.00010609515526054846
-0.00010058371862363688
-0.00010333943694209268
-0.00011436231021591582
-0.0001226294651712832
-0.00011160659189746003
-9.78280003051811e-05
-9.78280003051811e-05
-0.00010885087357900426
-0.0001198737468528274
-0.00011436231021591582
-9.78280003051811e-05
-9.507228198672531e-05
-0.00010333943694209268
-0.00011160659189746003
-0.00010885087357900426
-9.507228198672531e-05
-8.680512703135793e-05
-9.231656366826955e-05
-0.00010058371862363688
-0.00010058371862363688
-8.956084534981374e-05
-7.85379720759906e-05
-8.680512703135793e-05
-0.00010058371862363688
-0.00010058371862363688
-8.956084534981374e-05
-7.57822537575348e-05
-7.57822537575348e-05
-8.680512703135793e-05
-9.231656366826955e-05
-8.680512703135793e-05
-7.85379720759906e-05
-7.57822537575348e-05
-8.680512703135793e-05
-0.00010058371862363688
-9.78280003051811e-05
-8.404940871290214e-05
-7.57822537575348e-05
-7.85379720759906e-05
-8.129369039444639e-05
-8.129369039444639e-05
-7.302653543907902e-05
-7.302653543907902e-05
-9.231656366826955e-05
-0.00010885087357900426
-0.00010609515526054846
-8.956084534981374e-05
-8.956084534981374e-05
-9.78280003051811e-05
-0.00010885087357900426
-0.00011436231021591582
-0.00010058371862363688
-7.85379720759906e-05
-8.129369039444639e-05
-0.00010333943694209268
-0.0001171180285343716
-0.00010609515526054846
-8.680512703135793e-05
-0.00010609515526054846
-0.0001226294651712832
-0.0001171180285343716
-0.00010333943694209268
-9.78280003051811e-05
-0.00010609515526054846
-0.0001198737468528274
-0.0001198737468528274
-0.00010609515526054846
-9.78280003051811e-05
-0.00010333943694209268
-0.00011436231021591582
-0.0001171180285343716
-0.00010333943694209268
-9.231656366826955e-05
-9.78280003051811e-05
-0.00010885087357900426
-0.0001171180285343716
-0.00010885087357900426
-9.507228198672531e-05
-9.507228198672531e-05
-0.00010609515526054846
-0.00011160659189746003
-0.00010885087357900426
-9.78280003051811e-05
-9.78280003051811e-05
-0.00010609515526054846
-0.00011436231021591582
-0.00011436231021591582
-0.00010333943694209268
-9.78280003051811e-05
-0.00010609515526054846
-0.0001171180285343716
-0.00011436231021591582
-9.78280003051811e-05
-8.956084534981374e-05
-9.78280003051811e-05
-0.00011436231021591582
-0.0001171180285343716
-0.00010333943694209268
-9.231656366826955e-05
-9.78280003051811e-05
-0.00011160659189746003
-0.0001171180285343716
-0.00010333943694209268
-9.231656366826955e-05
-9.231656366826955e-05
-0.00010333943694209268
-0.00010885087357900426
-0.00010333943694209268
-8.956084534981374e-05
-8.680512703135793e-05
-9.78280003051811e-05
-0.00010885087357900426
-0.00010609515526054846
-8.956084534981374e-05
-8.404940871290214e-05
-9.507228198672531e-05
-0.00011160659189746003
-0.00011436231021591582
-0.00010058371862363688
-9.507228198672531e-05
-0.00010058371862363688
-0.00011160659189746003
-0.00011160659189746003
-9.231656366826955e-05
-8.956084534981374e-05
-8.129369039444639e-05
-7.85379720759906e-05
-6.751509880216745e-05
-4.8225070572976926e-05
-3.169076066224221e-05
-3.720219729915378e-05
-5.098078889143272e-05
-4.8225070572976926e-05
-5.098078889143272e-05
-6.475938048371164e-05
-7.57822537575348e-05
-7.85379720759906e-05
-6.475938048371164e-05
-5.3736507209888505e-05
-6.200366216525588e-05
-8.956084534981374e-05
-0.00010885087357900426
-0.00010609515526054846
-8.680512703135793e-05
-7.85379720759906e-05
-9.231656366826955e-05
-0.00011436231021591582
-0.00011436231021591582
-0.00010058371862363688
-9.231656366826955e-05
-9.78280003051811e-05
-0.00011160659189746003
-0.0001171180285343716
-0.00010058371862363688
-8.404940871290214e-05
-8.680512703135793e-05
-9.507228198672531e-05
-0.00010333943694209268
-9.507228198672531e-05
-0.00010058371862363688
-0.00014467521171892948
-0.00020530101472495681
-0.0002080567330434125
-7.302653543907902e-05
0.00014743093003738393
0.000469849973296711
0.0009245434958419158
0.001401282764934767
0.0015638701457236582
0.0013489241168841066
0.000949344960708018
0.0005911015793087656
0.0002934840009155406
5.649222552834297e-05
-2.342360570687485e-05
-1.240073243305171e-05
1.3778591592272275e-06
-1.240073243305171e-05
-2.8935042343786426e-05
-3.4446478980697995e-05
-3.4446478980697995e-05
-4.2713633936065354e-05
-5.6492225528344285e-05
-6.475938048371164e-05
-5.6492225528344285e-05
-4.2713633936065354e-05
-3.720219729915378e-05
-4.5469352254521147e-05
-5.3736507209888505e-05
-3.720219729915378e-05
-2.6179324025330647e-05
-3.169076066224221e-05
-3.995791561760957e-05
-3.4446478980697995e-05
-1.7912169069963278e-05
-9.64501411459592e-06
-1.5156450751507488e-05
-2.342360570687485e-05
-2.342360570687485e-05
-6.889295796140132e-06
6.8892957961388014e-06
4.133577477683014e-06
-4.133577477684346e-06
-9.64501411459592e-06
1.3778591592272275e-06
1.7912169069961946e-05
1.7912169069961946e-05
9.64501411459459e-06
6.8892957961388014e-06
2.066788738841773e-05
3.444647898069667e-05
3.9957915617608246e-05
3.444647898069667e-05
3.720219729915245e-05
5.373650720988717e-05
7.02708171206219e-05
7.02708171206219e-05
6.475938048371032e-05
5.649222552834297e-05
4.82250705729756e-05
5.9247943846798756e-05
7.578225375753347e-05
7.853797207598924e-05
6.200366216525454e-05
5.9247943846798756e-05
8.404940871290084e-05
0.00010885087357900291
0.00010609515526054714
8.68051270313566e-05
8.404940871290084e-05
0.00010333943694209132
0.0001253851834897376
0.00013089662012664922
0.00012262946517128183
0.00011711802853437029
0.00012262946517128183
0.00014191949340047234
0.00014743093003738393
0.00013916377508201656
0.00012814090180819342
0.00012814090180819342
0.00013916377508201656
0.00013916377508201656
0.00012814090180819342
0.00011436231021591448
0.00011160659189745871
0.0001253851834897376
0.00012814090180819342
0.00011711802853437029
0.00010609515526054714
0.00010609515526054714
0.00011987374685282605
0.00012262946517128183
0.00011160659189745871
5.9247943846798756e-05
5.098078889143139e-05
4.546935225451981e-05
2.6179324025329308e-05
-4.133577477684346e-06
-3.720219729915378e-05
-5.098078889143272e-05
-5.098078889143272e-05
-6.475938048371164e-05
-8.680512703135793e-05
-0.00010609515526054846
-0.00010885087357900426
-0.00010058371862363688
-0.00010058371862363688
-0.00011160659189746003
-0.00012538518348973897
-0.0001226294651712832
-0.00010609515526054846
-9.507228198672531e-05
-0.00010333943694209268
-0.00011436231021591582
-0.0001171180285343716
-0.00010609515526054846
-9.507228198672531e-05
-9.507228198672531e-05
-0.00010885087357900426
-0.00010885087357900426
-8.404940871290214e-05
-6.475938048371164e-05
-6.751509880216745e-05
-8.129369039444639e-05
-9.507228198672531e-05
-9.507228198672531e-05
-7.85379720759906e-05
-7.85379720759906e-05
-8.404940871290214e-05
-8.956084534981374e-05
-9.507228198672531e-05
-8.680512703135793e-05
-8.680512703135793e-05
-9.231656366826955e-05
-9.78280003051811e-05
-9.78280003051811e-05
-8.404940871290214e-05
-7.57822537575348e-05
-8.129369039444639e-05
-9.507228198672531e-05
-0.00010058371862363688
-8.404940871290214e-05
-7.57822537575348e-05
-7.85379720759906e-05
-8.956084534981374e-05
-9.507228198672531e-05
-8.680512703135793e-05
-7.57822537575348e-05
-7.85379720759906e-05
-8.956084534981374e-05
-0.00010058371862363688
-9.507228198672531e-05
-8.129369039444639e-05
-8.129369039444639e-05
-9.78280003051811e-05
-0.00010885087357900426
-0.00010885087357900426
-9.507228198672531e-05
-0.00010058371862363688
-0.0001171180285343716
-0.0001171180285343716
-0.00010333943694209268
-9.507228198672531e-05
-9.78280003051811e-05
-0.00010885087357900426
-0.0001171180285343716
-0.00010609515526054846
-9.507228198672531e-05
-9.78280003051811e-05
-0.00010885087357900426
-0.0001171180285343716
-0.00010609515526054846
-9.231656366826955e-05
-9.507228198672531e-05
-0.00010885087357900426
-0.00011436231021591582
-0.00010885087357900426
-0.00010058371862363688
-9.78280003051811e-05
-0.00010609515526054846
-0.0001198737468528274
-0.00011436231021591582
-9.78280003051811e-05
-9.231656366826955e-05
-0.00010333943694209268
-0.0001171180285343716
-0.0001198737468528274
-0.00010609515526054846
-9.78280003051811e-05
-0.00010333943694209268
-0.0001171180285343716
-0.0001226294651712832
-0.00011160659189746003
-9.78280003051811e-05
-0.00010333943694209268
-0.00011160659189746003
-0.00010058371862363688
-8.129369039444639e-05
-7.57822537575348e-05
-8.956084534981374e-05
-0.00011160659189746003
-0.00012814090180819475
-0.0001226294651712832
-0.00010333943694209268
-9.507228198672531e-05
-0.00010058371862363688
-0.00011436231021591582
-0.0001171180285343716
-0.00010333943694209268
-0.00010058371862363688
-0.00010885087357900426
-0.0001198737468528274
-0.0001171180285343716
-0.00010058371862363688
-9.231656366826955e-05
-0.00010333943694209268
-0.0001171180285343716
-0.0001171180285343716
-0.00010609515526054846
-9.507228198672531e-05
-9.78280003051811e-05
-0.00010885087357900426
-0.00011436231021591582
-0.00010333943694209268
-9.507228198672531e-05
-0.00010609515526054846
-0.00011436231021591582
-0.00010333943694209268
-8.680512703135793e-05
-7.85379720759906e-05
-8.404940871290214e-05
-9.507228198672531e-05
-9.507228198672531e-05
-7.57822537575348e-05
-5.3736507209888505e-05
-3.995791561760957e-05
-4.8225070572976926e-05
-5.6492225528344285e-05
-5.6492225528344285e-05
-5.9247943846800084e-05
-6.751509880216745e-05
-7.57822537575348e-05
-7.85379720759906e-05
-6.475938048371164e-05
-5.9247943846800084e-05
-7.57822537575348e-05
-0.00010333943694209268
-0.00011160659189746003
-9.78280003051811e-05
-8.680512703135793e-05
-8.956084534981374e-05
-0.00010058371862363688
-0.00011160659189746003
-0.00010333943694209268
-8.956084534981374e-05
-8.680512703135793e-05
-9.507228198672531e-05
-0.00010609515526054846
-9.78280003051811e-05
-8.129369039444639e-05
-7.57822537575348e-05
-8.404940871290214e-05
-0.00010058371862363688
-0.0001171180285343716
-0.00014743093003738526
-0.00019427814145113364
-0.00020254529640650095
-8.129369039444639e-05
0.0001694766765850302
0.0005332314946211942
0.0009934364538033101
0.0015087557793545424
0.001864243442435339
0.001833930540932325
0.0014867100328068963
0.0010678408484016168
0.0006489716639963371
0.000263171099412527
1.5156450751506162e-05
-3.720219729915378e-05
-9.64501411459592e-06
-4.133577477684346e-06
-2.8935042343786426e-05
-5.9247943846800084e-05
-7.57822537575348e-05
-6.751509880216745e-05
-6.475938048371164e-05
-7.57822537575348e-05
-8.956084534981374e-05
-7.85379720759906e-05
-6.751509880216745e-05
-6.751509880216745e-05
-7.302653543907902e-05
-7.302653543907902e-05
-5.9247943846800084e-05
-4.5469352254521147e-05
-4.5469352254521147e-05
-5.6492225528344285e-05
-6.475938048371164e-05
-5.3736507209888505e-05
-3.169076066224221e-05
-2.8935042343786426e-05
-3.720219729915378e-05
-4.8225070572976926e-05
-3.995791561760957e-05
-2.066788738841907e-05
-1.7912169069963278e-05
-2.342360570687485e-05
-2.8935042343786426e-05
-2.066788738841907e-05
6.8892957961388014e-06
2.3423605706873515e-05
1.5156450751506162e-05
1.3778591592272275e-06
-1.377859159228559e-06
4.133577477683014e-06
6.8892957961388014e-06
4.133577477683014e-06
4.133577477683014e-06
9.64501411459459e-06
2.3423605706873515e-05
3.169076066224089e-05
3.169076066224089e-05
3.169076066224089e-05
2.6179324025329308e-05
3.444647898069667e-05
5.373650720988717e-05
5.9247943846798756e-05
5.373650720988717e-05
5.098078889143139e-05
6.475938048371032e-05
8.129369039444505e-05
8.68051270313566e-05
8.404940871290084e-05
7.853797207598924e-05
8.956084534981241e-05
0.00010885087357900291
0.00011711802853437029
0.00011711802853437029
0.00011160659189745871
0.00011436231021591448
0.00013089662012664922
0.00014467521171892812
0.00013916377508201656
0.00012262946517128183
0.00011987374685282605
0.0001253851834897376
0.00013089662012664922
0.00012814090180819342
0.00010885087357900291
9.507228198672396e-05
0.00010333943694209132
0.00011436231021591448
0.00011436231021591448
0.00011436231021591448
0.00010885087357900291
0.00010609515526054714
8.956084534981241e-05
6.200366216525454e-05
3.9957915617608246e-05
2.8935042343785094e-05
2.066788738841773e-05
6.8892957961388014e-06
-1.7912169069963278e-05
-4.5469352254521147e-05
-6.475938048371164e-05
-6.751509880216745e-05
-7.302653543907902e-05
-8.956084534981374e-05
-0.00010609515526054846
-0.00011436231021591582
-0.00010885087357900426
-9.78280003051811e-05
-0.00010058371862363688
-0.00011160659189746003
-0.0001171180285343716
-0.00010609515526054846
-9.507228198672531e-05
-9.231656366826955e-05
-0.00010333943694209268
-0.00011160659189746003
-0.00010333943694209268
-8.680512703135793e-05
-7.85379720759906e-05
-9.231656366826955e-05
-0.00010609515526054846
-0.00010058371862363688
-8.404940871290214e-05
-7.85379720759906e-05
-8.404940871290214e-05
-9.507228198672531e-05
-9.78280003051811e-05
-8.404940871290214e-05
-7.57822537575348e-05
-8.129369039444639e-05
-8.956084534981374e-05
-9.231656366826955e-05
-8.129369039444639e-05
-7.027081712062322e-05
-7.57822537575348e-05
-8.956084534981374e-05
-9.78280003051811e-05
-8.680512703135793e-05
-7.027081712062322e-05
-7.302653543907902e-05
-8.404940871290214e-05
-9.507228198672531e-05
-8.680512703135793e-05
-7.027081712062322e-05
-6.751509880216745e-05
-8.129369039444639e-05
-9.231656366826955e-05
-9.231656366826955e-05
-8.129369039444639e-05
-7.85379720759906e-05
-8.680512703135793e-05
-9.78280003051811e-05
-0.00010058371862363688
-8.680512703135793e-05
-8.404940871290214e-05
-0.00010058371862363688
-0.00010333943694209268
-9.231656366826955e-05
-8.404940871290214e-05
-8.956084534981374e-05
-0.00010333943694209268
-0.00011160659189746003
-0.00010333943694209268
-9.231656366826955e-05
-9.231656366826955e-05
-0.00010058371862363688
-0.00011160659189746003
-0.00010609515526054846
-9.231656366826955e-05
-8.956084534981374e-05
-9.78280003051811e-05
-0.00011160659189746003
-0.00010885087357900426
-9.231656366826955e-05
-8.680512703135793e-05
-9.507228198672531e-05
-0.00010885087357900426
-0.00010885087357900426
-9.507228198672531e-05
-8.404940871290214e-05
-9.231656366826955e-05
-0.00010609515526054846
-0.00010885087357900426
-9.78280003051811e-05
-8.956084534981374e-05
-9.507228198672531e-05
-0.00010333943694209268
-0.00011160659189746003
-0.00010058371862363688
-8.404940871290214e-05
-8.680512703135793e-05
-0.00010058371862363688
-0.00011160659189746003
-0.00010333943694209268
-8.680512703135793e-05
-8.404940871290214e-05
-9.231656366826955e-05
-0.00010333943694209268
-0.00010333943694209268
-8.680512703135793e-05
-8.404940871290214e-05
-8.956084534981374e-05
-0.00010058371862363688
-0.00010058371862363688
-8.956084534981374e-05
-8.129369039444639e-05
-8.404940871290214e-05
-9.78280003051811e-05
-9.78280003051811e-05
-8.404940871290214e-05
-7.302653543907902e-05
-7.57822537575348e-05
-8.956084534981374e-05
-9.78280003051811e-05
-8.680512703135793e-05
-7.85379720759906e-05
-8.129369039444639e-05
-9.507228198672531e-05
-0.00010609515526054846
-9.78280003051811e-05
-8.129369039444639e-05
-8.404940871290214e-05
-9.507228198672531e-05
-9.507228198672531e-05
-7.85379720759906e-05
-7.302653543907902e-05
-8.129369039444639e-05
-9.231656366826955e-05
-8.680512703135793e-05
-7.027081712062322e-05
-6.475938048371164e-05
-6.751509880216745e-05
-6.751509880216745e-05
-4.2713633936065354e-05
-1.5156450751507488e-05
-6.889295796140132e-06
-2.8935042343786426e-05
-5.098078889143272e-05
-6.475938048371164e-05
-5.6492225528344285e-05
-3.995791561760957e-05
-4.2713633936065354e-05
-5.3736507209888505e-05
-7.302653543907902e-05
-7.85379720759906e-05
-7.57822537575348e-05
-7.302653543907902e-05
-8.129369039444639e-05
-9.78280003051811e-05
-9.507228198672531e-05
-8.404940871290214e-05
-7.302653543907902e-05
-7.85379720759906e-05
-9.231656366826955e-05
-9.507228198672531e-05
-8.129369039444639e-05
-7.302653543907902e-05
-7.85379720759906e-05
-9.231656366826955e-05
-9.231656366826955e-05
-8.129369039444639e-05
-6.751509880216745e-05
-8.129369039444639e-05
-0.0001226294651712832
-0.00017498811322194308
-0.00019427814145113364
-0.00010609515526054846
6.200366216525454e-05
0.00030450687418936376
0.0006820402838178067
0.0012001153276874944
0.0015831601739528486
0.0015252900892652771
0.0011505123979552907
0.0007371546501869223
0.0004367813534752416
0.0001832552681773092
9.64501411459459e-06
-3.4446478980697995e-05
-2.066788738841907e-05
-9.64501411459592e-06
-4.133577477684346e-06
-1.240073243305171e-05
-2.8935042343786426e-05
-4.8225070572976926e-05
-4.5469352254521147e-05
-2.6179324025330647e-05
-3.4446478980697995e-05
-4.8225070572976926e-05
-5.9247943846800084e-05
-4.8225070572976926e-05
-2.342360570687485e-05
-2.066788738841907e-05
-3.4446478980697995e-05
-3.995791561760957e-05
-2.8935042343786426e-05
-1.240073243305171e-05
-4.133577477684346e-06
-9.64501411459592e-06
-2.066788738841907e-05
-1.7912169069963278e-05
-1.377859159228559e-06
9.64501411459459e-06
4.133577477683014e-06
-4.133577477684346e-06
-1.377859159228559e-06
1.7912169069961946e-05
2.8935042343785094e-05
2.6179324025329308e-05
1.5156450751506162e-05
1.5156450751506162e-05
3.169076066224089e-05
4.82250705729756e-05
5.098078889143139e-05
3.720219729915245e-05
3.169076066224089e-05
3.9957915617608246e-05
5.373650720988717e-05
5.9247943846798756e-05
5.649222552834297e-05
5.098078889143139e-05
5.9247943846798756e-05
7.853797207598924e-05
8.404940871290084e-05
8.404940871290084e-05
7.578225375753347e-05
8.404940871290084e-05
0.00010333943694209132
0.00011711802853437029
0.00011436231021591448
0.00010609515526054714
0.00011160659189745871
0.00013365233844510492
0.00014743093003738393
0.00014467521171892812
0.00013089662012664922
0.00013365233844510492
0.00014467521171892812
0.00016120952162966288
0.00016672095826657444
0.0001556980849927513
0.00015018664835583973
0.00016396523994811866
0.00017774383154039756
0.00017774383154039756
0.00016120952162966288
0.00014743093003738393
0.00015018664835583973
0.00015845380331120705
0.00015294236667429551
0.00013916377508201656
0.0001253851834897376
0.00013640805676356078
0.00013640805676356078
0.00012262946517128183
0.00010333943694209132
8.68051270313566e-05
8.404940871290084e-05
7.578225375753347e-05
5.373650720988717e-05
2.3423605706873515e-05
1.3778591592272275e-06
-9.64501411459592e-06
-1.7912169069963278e-05
-3.995791561760957e-05
-6.751509880216745e-05
-8.680512703135793e-05
-8.956084534981374e-05
-8.680512703135793e-05
-9.231656366826955e-05
-0.00010609515526054846
-0.00011436231021591582
-0.00010885087357900426
-9.78280003051811e-05
-9.78280003051811e-05
-0.00010609515526054846
-0.0001171180285343716
-0.00011160659189746003
-9.507228198672531e-05
-8.956084534981374e-05
-9.507228198672531e-05
-0.00010609515526054846
-0.00010609515526054846
-9.231656366826955e-05
-8.129369039444639e-05
-8.404940871290214e-05
-9.231656366826955e-05
-9.507228198672531e-05
-8.404940871290214e-05
-7.027081712062322e-05
-7.027081712062322e-05
-8.129369039444639e-05
-9.231656366826955e-05
-8.404940871290214e-05
-7.027081712062322e-05
-7.027081712062322e-05
-8.129369039444639e-05
-8.956084534981374e-05
-8.404940871290214e-05
-7.302653543907902e-05
-7.027081712062322e-05
-7.85379720759906e-05
-9.231656366826955e-05
-8.680512703135793e-05
-7.302653543907902e-05
-7.027081712062322e-05
-7.302653543907902e-05
-8.680512703135793e-05
-8.956084534981374e-05
-7.57822537575348e-05
-7.302653543907902e-05
-8.129369039444639e-05
-9.231656366826955e-05
-9.507228198672531e-05
-8.680512703135793e-05
-7.85379720759906e-05
-8.129369039444639e-05
-9.78280003051811e-05
-9.231656366826955e-05
-7.85379720759906e-05
-8.404940871290214e-05
-9.507228198672531e-05
-0.00010609515526054846
-0.00010058371862363688
-8.680512703135793e-05
-8.680512703135793e-05
-9.78280003051811e-05
-0.00011160659189746003
-0.00010885087357900426
-8.956084534981374e-05
-8.404940871290214e-05
-9.507228198672531e-05
-0.00011160659189746003
-0.00011436231021591582
-0.00010058371862363688
-8.956084534981374e-05
-9.231656366826955e-05
-0.00011160659189746003
-0.0001226294651712832
-0.00010885087357900426
-9.231656366826955e-05
-9.231656366826955e-05
-0.00010609515526054846
-0.00011160659189746003
-0.00010609515526054846
-9.231656366826955e-05
-9.231656366826955e-05
-9.78280003051811e-05
-0.00011160659189746003
-0.00010885087357900426
-9.507228198672531e-05
-8.956084534981374e-05
-9.78280003051811e-05
-0.00010885087357900426
-0.00010885087357900426
-9.507228198672531e-05
-9.231656366826955e-05
-9.78280003051811e-05
-0.00010885087357900426
-0.00010885087357900426
-9.507228198672531e-05
-8.404940871290214e-05
-8.956084534981374e-05
-0.00010609515526054846
-0.0001171180285343716
-0.00010609515526054846
-9.231656366826955e-05
-9.507228198672531e-05
-0.00010333943694209268
-0.00011160659189746003
-0.00010058371862363688
-8.680512703135793e-05
-8.680512703135793e-05
-0.00010058371862363688
-0.00011160659189746003
-0.00010609515526054846
-8.956084534981374e-05
-8.404940871290214e-05
-9.231656366826955e-05
-0.00010333943694209268
-0.00010333943694209268
-8.404940871290214e-05
-7.027081712062322e-05
-8.680512703135793e-05
-8.129369039444639e-05
-4.8225070572976926e-05
-1.7912169069963278e-05
-1.5156450751507488e-05
-3.995791561760957e-05
-6.200366216525588e-05
-6.200366216525588e-05
-5.6492225528344285e-05
-5.9247943846800084e-05
-7.57822537575348e-05
-8.129369039444639e-05
-7.027081712062322e-05
-7.027081712062322e-05
-7.85379720759906e-05
-9.78280003051811e-05
-0.00011436231021591582
-0.00010885087357900426
-9.78280003051811e-05
-9.507228198672531e-05
-0.00010058371862363688
-0.00011160659189746003
-0.00011436231021591582
-0.00010058371862363688
-9.231656366826955e-05
-0.00010058371862363688
-0.00011436231021591582
-0.00011436231021591582
-9.78280003051811e-05
-8.680512703135793e-05
-8.956084534981374e-05
-0.00010609515526054846
-0.0001226294651712832
-0.00012814090180819475
-0.0001364080567635621
-0.0001198737468528274
1.3778591592272275e-06
0.00020530101472495543
0.0004863842832074457
0.0008418719462882423
0.0012166496375982292
0.0012690082856488892
0.0009631235523002968
0.0005525215228503846
0.00023010247959105753
3.720219729915245e-05
-9.507228198672531e-05
-0.0001226294651712832
-8.956084534981374e-05
-3.720219729915378e-05
1.3778591592272275e-06
-4.133577477684346e-06
-2.342360570687485e-05
-3.4446478980697995e-05
-2.6179324025330647e-05
-1.7912169069963278e-05
-2.342360570687485e-05
-3.169076066224221e-05
-3.720219729915378e-05
-2.6179324025330647e-05
-1.240073243305171e-05
-1.240073243305171e-05
-2.342360570687485e-05
-2.8935042343786426e-05
-2.066788738841907e-05
6.8892957961388014e-06
-1.377859159228559e-06
-6.889295796140132e-06
1.3778591592272275e-06
1.7912169069961946e-05
2.3423605706873515e-05
1.5156450751506162e-05
4.133577477683014e-06
6.8892957961388014e-06
2.6179324025329308e-05
3.169076066224089e-05
2.8935042343785094e-05
2.3423605706873515e-05
2.3423605706873515e-05
3.720219729915245e-05
5.373650720988717e-05
5.649222552834297e-05
5.098078889143139e-05
5.649222552834297e-05
7.02708171206219e-05
7.578225375753347e-05
7.02708171206219e-05
6.200366216525454e-05
5.649222552834297e-05
6.751509880216611e-05
8.129369039444505e-05
9.507228198672396e-05
0.00010333943694209132
9.782800030517979e-05
9.507228198672396e-05
0.00010885087357900291
0.00011711802853437029
0.00011436231021591448
0.00011160659189745871
0.00011436231021591448
0.00013365233844510492
0.00014743093003738393
0.00014467521171892812
0.00013916377508201656
0.00014191949340047234
0.00016120952162966288
0.00017774383154039756
0.00017498811322194178
0.00016672095826657444
0.00016396523994811866
0.00017498811322194178
0.00018876670481422076
0.00018601098649576498
0.0001694766765850302
0.0001556980849927513
0.00016396523994811866
0.00017774383154039756
0.000172232394903486
0.00015845380331120705
0.00014467521171892812
0.00014191949340047234
0.00015294236667429551
0.0001556980849927513
0.00014191949340047234
0.00012262946517128183
0.00011436231021591448
0.00011711802853437029
0.00011160659189745871
8.956084534981241e-05
5.649222552834297e-05
3.444647898069667e-05
1.5156450751506162e-05
-9.64501411459592e-06
-3.995791561760957e-05
-6.475938048371164e-05
-6.751509880216745e-05
-6.751509880216745e-05
-7.85379720759906e-05
-9.78280003051811e-05
-0.00010333943694209268
-0.00010058371862363688
-9.231656366826955e-05
-9.231656366826955e-05
-9.78280003051811e-05
-0.00010609515526054846
-0.00010058371862363688
-8.404940871290214e-05
-7.85379720759906e-05
-8.680512703135793e-05
-9.78280003051811e-05
-9.507228198672531e-05
-7.85379720759906e-05
-6.751509880216745e-05
-7.57822537575348e-05
-8.956084534981374e-05
-8.956084534981374e-05
-7.57822537575348e-05
-6.200366216525588e-05
-6.475938048371164e-05
-7.57822537575348e-05
-8.129369039444639e-05
-7.027081712062322e-05
-5.3736507209888505e-05
-4.8225070572976926e-05
-6.200366216525588e-05
-7.302653543907902e-05
-6.200366216525588e-05
-4.5469352254521147e-05
-4.5469352254521147e-05
-5.6492225528344285e-05
-7.027081712062322e-05
-6.751509880216745e-05
-5.6492225528344285e-05
-4.8225070572976926e-05
-5.6492225528344285e-05
-7.027081712062322e-05
-7.027081712062322e-05
-5.6492225528344285e-05
-5.098078889143272e-05
-5.9247943846800084e-05
-7.302653543907902e-05
-7.85379720759906e-05
-7.027081712062322e-05
-6.475938048371164e-05
-6.751509880216745e-05
-7.302653543907902e-05
-7.302653543907902e-05
-6.475938048371164e-05
-5.6492225528344285e-05
-7.027081712062322e-05
-9.231656366826955e-05
-0.00010333943694209268
-9.78280003051811e-05
-8.404940871290214e-05
-7.57822537575348e-05
-8.680512703135793e-05
-8.956084534981374e-05
-7.85379720759906e-05
-7.57822537575348e-05
-8.404940871290214e-05
-9.78280003051811e-05
-9.78280003051811e-05
-8.129369039444639e-05
-7.57822537575348e-05
-8.404940871290214e-05
-9.507228198672531e-05
-9.507228198672531e-05
-8.956084534981374e-05
-8.129369039444639e-05
-8.680512703135793e-05
-0.00010058371862363688
-0.00010609515526054846
-9.78280003051811e-05
-8.680512703135793e-05
-8.680512703135793e-05
-9.507228198672531e-05
-0.00010333943694209268
-9.507228198672531e-05
-7.85379720759906e-05
-8.129369039444639e-05
-9.507228198672531e-05
-0.00010609515526054846
-0.00010058371862363688
-8.680512703135793e-05
-8.129369039444639e-05
-8.956084534981374e-05
-0.00010333943694209268
-0.00010058371862363688
-7.302653543907902e-05
-6.475938048371164e-05
-7.85379720759906e-05
-9.78280003051811e-05
-9.78280003051811e-05
-9.231656366826955e-05
-8.956084534981374e-05
-9.78280003051811e-05
-0.00011160659189746003
-0.00011436231021591582
-0.00010333943694209268
-8.956084534981374e-05
-8.680512703135793e-05
-9.507228198672531e-05
-0.00010333943694209268
-9.507228198672531e-05
-8.404940871290214e-05
-8.680512703135793e-05
-9.507228198672531e-05
-0.00010333943694209268
-9.78280003051811e-05
-8.129369039444639e-05
-7.027081712062322e-05
-7.302653543907902e-05
-8.404940871290214e-05
-8.404940871290214e-05
-6.751509880216745e-05
-4.8225070572976926e-05
-3.4446478980697995e-05
-3.720219729915378e-05
-5.098078889143272e-05
-5.098078889143272e-05
-5.098078889143272e-05
-6.200366216525588e-05
-8.129369039444639e-05
-6.475938048371164e-05
-5.098078889143272e-05
-5.6492225528344285e-05
-8.404940871290214e-05
-0.00010609515526054846
-9.78280003051811e-05
-7.85379720759906e-05
-7.85379720759906e-05
-8.956084534981374e-05
-0.00010609515526054846
-0.00010333943694209268
-8.680512703135793e-05
-8.129369039444639e-05
-8.680512703135793e-05
-9.507228198672531e-05
-9.231656366826955e-05
-7.302653543907902e-05
-6.751509880216745e-05
-6.751509880216745e-05
-7.57822537575348e-05
-9.231656366826955e-05
-0.0001226294651712832
-0.00015294236667429682
-0.0001391637750820179
-4.133577477684346e-06
0.0002686825360494386
0.0006544831006332488
0.0010871308766308072
0.0015335572442206446
0.001806373357747768
0.001696144625009536
0.0013103440604257258
0.0008887191577019906
0.0005029185931181804
0.000172232394903486
-3.169076066224221e-05
-6.475938048371164e-05
-2.6179324025330647e-05
-1.240073243305171e-05
-2.8935042343786426e-05
-5.098078889143272e-05
-6.475938048371164e-05
-5.9247943846800084e-05
-5.3736507209888505e-05
-6.200366216525588e-05
-7.302653543907902e-05
-7.57822537575348e-05
-6.200366216525588e-05
-4.8225070572976926e-05
-5.3736507209888505e-05
-6.200366216525588e-05
-5.9247943846800084e-05
-4.5469352254521147e-05
-3.169076066224221e-05
-3.169076066224221e-05
-3.995791561760957e-05
-4.8225070572976926e-05
-3.720219729915378e-05
-2.066788738841907e-05
-2.066788738841907e-05
-2.6179324025330647e-05
-3.169076066224221e-05
-2.6179324025330647e-05
-6.889295796140132e-06
-4.133577477684346e-06
-9.64501411459592e-06
-6.889295796140132e-06
6.8892957961388014e-06
2.066788738841773e-05
2.066788738841773e-05
9.64501411459459e-06
9.64501411459459e-06
2.8935042343785094e-05
4.271363393606403e-05
4.271363393606403e-05
3.720219729915245e-05
3.444647898069667e-05
4.546935225451981e-05
6.200366216525454e-05
6.475938048371032e-05
6.751509880216611e-05
7.30265354390777e-05
8.404940871290084e-05
9.782800030517979e-05
9.507228198672396e-05
8.68051270313566e-05
8.129369039444505e-05
8.956084534981241e-05
0.00011160659189745871
0.00012262946517128183
0.0001253851834897376
0.00012814090180819342
0.00013365233844510492
0.00014467521171892812
0.00015294236667429551
0.0001556980849927513
0.00014743093003738393
0.00014743093003738393
0.00016396523994811866
0.00017774383154039756
0.00017498811322194178
0.00016396523994811866
0.00016396523994811866
0.00017774383154039756
0.00018876670481422076
0.00018049954985885336
0.00016672095826657444
0.00015018664835583973
0.0001556980849927513
0.000172232394903486
0.000172232394903486
0.00015845380331120705
0.00013640805676356078
0.00013089662012664922
0.00013089662012664922
0.00011711802853437029
8.956084534981241e-05
5.373650720988717e-05
3.169076066224089e-05
2.3423605706873515e-05
1.2400732433050376e-05
-1.5156450751507488e-05
-5.098078889143272e-05
-7.027081712062322e-05
-7.027081712062322e-05
-7.027081712062322e-05
-8.129369039444639e-05
-0.00010058371862363688
-0.00010885087357900426
-9.507228198672531e-05
-8.404940871290214e-05
-9.78280003051811e-05
-0.00010333943694209268
-9.507228198672531e-05
-7.85379720759906e-05
-7.57822537575348e-05
-8.404940871290214e-05
-9.231656366826955e-05
-8.956084534981374e-05
-7.302653543907902e-05
-6.751509880216745e-05
-7.57822537575348e-05
-8.404940871290214e-05
-7.85379720759906e-05
-6.475938048371164e-05
-5.9247943846800084e-05
-7.027081712062322e-05
-8.404940871290214e-05
-8.129369039444639e-05
-5.9247943846800084e-05
-4.5469352254521147e-05
-5.098078889143272e-05
-6.751509880216745e-05
-8.404940871290214e-05
-8.404940871290214e-05
-7.302653543907902e-05
-7.57822537575348e-05
-8.404940871290214e-05
-8.404940871290214e-05
-7.302653543907902e-05
-6.751509880216745e-05
-6.751509880216745e-05
-7.302653543907902e-05
-8.680512703135793e-05
-9.507228198672531e-05
-8.129369039444639e-05
-6.751509880216745e-05
-7.302653543907902e-05
-9.231656366826955e-05
-9.231656366826955e-05
-7.027081712062322e-05
-6.751509880216745e-05
-7.57822537575348e-05
-8.956084534981374e-05
-9.507228198672531e-05
-8.680512703135793e-05
-7.57822537575348e-05
-8.129369039444639e-05
-9.507228198672531e-05
-0.00010058371862363688
-8.956084534981374e-05
-7.85379720759906e-05
-8.129369039444639e-05
-8.956084534981374e-05
-9.78280003051811e-05
-9.507228198672531e-05
-8.404940871290214e-05
-8.404940871290214e-05
-9.507228198672531e-05
-0.00010609515526054846
-0.00010333943694209268
-8.956084534981374e-05
-7.85379720759906e-05
-7.027081712062322e-05
-8.680512703135793e-05
-8.129369039444639e-05
-8.404940871290214e-05
-9.78280003051811e-05
-0.00011160659189746003
-0.00011436231021591582
-0.00010058371862363688
-8.404940871290214e-05
-8.680512703135793e-05
-9.231656366826955e-05
-9.78280003051811e-05
-9.231656366826955e-05
-8.129369039444639e-05
-8.404940871290214e-05
-9.507228198672531e-05
-0.00010333943694209268
-9.78280003051811e-05
-8.404940871290214e-05
-7.85379720759906e-05
-9.231656366826955e-05
-0.00010609515526054846
-0.00010609515526054846
-9.231656366826955e-05
-8.404940871290214e-05
-8.956084534981374e-05
-0.00010333943694209268
-0.00010609515526054846
-9.231656366826955e-05
-7.57822537575348e-05
-8.404940871290214e-05
-0.00010058371862363688
-0.00010058371862363688
-9.231656366826955e-05
-8.404940871290214e-05
-8.956084534981374e-05
-0.00010609515526054846
-0.00011160659189746003
-0.00010058371862363688
-8.404940871290214e-05
-8.956084534981374e-05
-0.00010609515526054846
-0.0001171180285343716
-0.00010609515526054846
-8.956084534981374e-05
-8.404940871290214e-05
-9.231656366826955e-05
-9.507228198672531e-05
-8.956084534981374e-05
-7.302653543907902e-05
-6.751509880216745e-05
-6.751509880216745e-05
-6.200366216525588e-05
-4.8225070572976926e-05
-2.8935042343786426e-05
-3.169076066224221e-05
-5.098078889143272e-05
-7.302653543907902e-05
-7.85379720759906e-05
-6.475938048371164e-05
-5.3736507209888505e-05
-5.6492225528344285e-05
-7.027081712062322e-05
-9.231656366826955e-05
-9.78280003051811e-05
-8.956084534981374e-05
-8.404940871290214e-05
-0.00010609515526054846
-0.00010333943694209268
-8.956084534981374e-05
-8.680512703135793e-05
-9.507228198672531e-05
-0.00010058371862363688
-9.78280003051811e-05
-8.404940871290214e-05
-7.57822537575348e-05
-8.404940871290214e-05
-9.78280003051811e-05
-9.78280003051811e-05
-8.956084534981374e-05
-9.78280003051811e-05
-0.0001391637750820179
-0.00019152242313267784
-0.00019152242313267784
-4.5469352254521147e-05
0.0002190796063172344
0.0005773229877164866
0.0010154822003509568
0.0015115114976729984
0.0018697548790722507
0.0018311748226138695
0.001453641412985427
0.0009961921721217662
0.0005773229877164866
0.0002218353246356902
1.5156450751506162e-05
-3.4446478980697995e-05
-2.342360570687485e-05
-3.169076066224221e-05
-3.995791561760957e-05
-3.995791561760957e-05
-5.098078889143272e-05
-6.751509880216745e-05
-8.129369039444639e-05
-7.85379720759906e-05
-6.475938048371164e-05
-5.9247943846800084e-05
-6.475938048371164e-05
-7.57822537575348e-05
-7.85379720759906e-05
-6.200366216525588e-05
-4.8225070572976926e-05
-5.098078889143272e-05
-6.200366216525588e-05
-6.475938048371164e-05
-5.3736507209888505e-05
-3.4446478980697995e-05
-2.342360570687485e-05
-2.8935042343786426e-05
-3.995791561760957e-05
-2.8935042343786426e-05
-1.240073243305171e-05
-2.066788738841907e-05
-2.8935042343786426e-05
-3.720219729915378e-05
-2.6179324025330647e-05
-1.377859159228559e-06
1.3778591592272275e-06
-4.133577477684346e-06
-1.5156450751507488e-05
-1.240073243305171e-05
9.64501411459459e-06
2.8935042343785094e-05
6.8892957961388014e-06
1.3778591592272275e-06
1.5156450751506162e-05
3.169076066224089e-05
3.444647898069667e-05
2.6179324025329308e-05
2.3423605706873515e-05
3.9957915617608246e-05
5.9247943846798756e-05
6.751509880216611e-05
6.751509880216611e-05
6.475938048371032e-05
7.30265354390777e-05
9.23165636682682e-05
0.00010058371862363556
9.23165636682682e-05
8.68051270313566e-05
9.507228198672396e-05
0.00011436231021591448
0.00012814090180819342
0.0001253851834897376
0.00012262946517128183
0.0001253851834897376
0.00014743093003738393
0.00016120952162966288
0.00015845380331120705
0.00015018664835583973
0.00014467521171892812
0.00016120952162966288
0.00017498811322194178
0.000172232394903486
0.00015845380331120705
0.00015018664835583973
0.0001556980849927513
0.00016120952162966288
0.00015845380331120705
0.00014743093003738393
0.00013640805676356078
0.00014191949340047234
0.0001556980849927513
0.00014743093003738393
0.0001253851834897376
8.956084534981241e-05
7.853797207598924e-05
8.129369039444505e-05
6.751509880216611e-05
2.6179324025329308e-05
-1.240073243305171e-05
-2.6179324025330647e-05
-3.4446478980697995e-05
-5.098078889143272e-05
-6.751509880216745e-05
-8.956084534981374e-05
-0.00010609515526054846
-0.00010333943694209268
-9.507228198672531e-05
-0.00010058371862363688
-0.00011160659189746003
-0.0001198737468528274
-0.00011436231021591582
-9.78280003051811e-05
-9.507228198672531e-05
-0.00010058371862363688
-0.00010333943694209268
-9.78280003051811e-05
-8.404940871290214e-05
-8.956084534981374e-05
-9.507228198672531e-05
-8.404940871290214e-05
-7.027081712062322e-05
-6.475938048371164e-05
-7.57822537575348e-05
-8.680512703135793e-05
-8.680512703135793e-05
-7.57822537575348e-05
-6.751509880216745e-05
-6.751509880216745e-05
-7.57822537575348e-05
-7.85379720759906e-05
-6.751509880216745e-05
-5.6492225528344285e-05
-6.200366216525588e-05
-7.027081712062322e-05
-7.57822537575348e-05
-6.751509880216745e-05
-5.9247943846800084e-05
-6.200366216525588e-05
-7.85379720759906e-05
-9.507228198672531e-05
-8.680512703135793e-05
-7.027081712062322e-05
-6.751509880216745e-05
-7.57822537575348e-05
-8.680512703135793e-05
-8.404940871290214e-05
-7.302653543907902e-05
-6.751509880216745e-05
-7.302653543907902e-05
-8.129369039444639e-05
-8.404940871290214e-05
-7.302653543907902e-05
-6.475938048371164e-05
-7.027081712062322e-05
-8.404940871290214e-05
-9.231656366826955e-05
-7.85379720759906e-05
-7.027081712062322e-05
-7.302653543907902e-05
-8.680512703135793e-05
-9.507228198672531e-05
-8.680512703135793e-05
-7.57822537575348e-05
-7.57822537575348e-05
-8.680512703135793e-05
-9.507228198672531e-05
-8.680512703135793e-05
-7.302653543907902e-05
-7.027081712062322e-05
-8.404940871290214e-05
-0.00010058371862363688
-9.507228198672531e-05
-8.404940871290214e-05
-7.85379720759906e-05
-8.680512703135793e-05
-9.78280003051811e-05
-0.00010333943694209268
-9.231656366826955e-05
-8.129369039444639e-05
-8.680512703135793e-05
-9.78280003051811e-05
-0.00010609515526054846
-7.85379720759906e-05
-7.302653543907902e-05
-7.57822537575348e-05
-8.404940871290214e-05
-8.129369039444639e-05
-7.027081712062322e-05
-7.85379720759906e-05
-9.507228198672531e-05
-0.00011160659189746003
-0.00010333943694209268
-8.404940871290214e-05
-7.57822537575348e-05
-8.404940871290214e-05
-9.78280003051811e-05
-9.507228198672531e-05
-8.129369039444639e-05
-7.302653543907902e-05
-7.85379720759906e-05
-9.231656366826955e-05
-9.231656366826955e-05
-7.85379720759906e-05
-6.751509880216745e-05
-7.027081712062322e-05
-8.404940871290214e-05
-9.507228198672531e-05
-8.680512703135793e-05
-7.302653543907902e-05
-7.85379720759906e-05
-9.231656366826955e-05
-9.507228198672531e-05
-8.956084534981374e-05
-8.404940871290214e-05
-8.404940871290214e-05
-8.956084534981374e-05
-9.78280003051811e-05
-9.507228198672531e-05
-7.57822537575348e-05
-6.200366216525588e-05
-7.027081712062322e-05
-8.404940871290214e-05
-7.85379720759906e-05
-4.8225070572976926e-05
-2.342360570687485e-05
-1.7912169069963278e-05
-3.169076066224221e-05
-4.5469352254521147e-05
-4.5469352254521147e-05
-4.2713633936065354e-05
-5.098078889143272e-05
-6.475938048371164e-05
-7.027081712062322e-05
-5.9247943846800084e-05
-5.6492225528344285e-05
-7.302653543907902e-05
-9.231656366826955e-05
-9.78280003051811e-05
-8.956084534981374e-05
-7.57822537575348e-05
-7.85379720759906e-05
-9.231656366826955e-05
-0.00010333943694209268
-9.507228198672531e-05
-8.129369039444639e-05
-8.129369039444639e-05
-8.956084534981374e-05
-8.956084534981374e-05
-7.57822537575348e-05
-6.751509880216745e-05
-7.85379720759906e-05
-8.956084534981374e-05
-8.956084534981374e-05
-9.231656366826955e-05
-0.0001198737468528274
-0.00014191949340047367
-6.475938048371164e-05
0.00012262946517128183
0.0003982012970168605
0.0007592003967345686
0.001180825299458304
0.0014040384832532226
0.0012221610742351409
0.0008280933546959632
0.0004505599450675205
0.00020254529640649968
1.7912169069961946e-05
-6.751509880216745e-05
-4.5469352254521147e-05
-1.377859159228559e-06
1.7912169069961946e-05
6.8892957961388014e-06
-1.5156450751507488e-05
-2.6179324025330647e-05
-1.240073243305171e-05
-6.889295796140132e-06
-1.240073243305171e-05
-2.6179324025330647e-05
-2.6179324025330647e-05
-1.5156450751507488e-05
-4.133577477684346e-06
-4.133577477684346e-06
-2.066788738841907e-05
-2.342360570687485e-05
-6.889295796140132e-06
9.64501411459459e-06
6.8892957961388014e-06
-1.377859159228559e-06
-1.377859159228559e-06
4.133577477683014e-06
1.7912169069961946e-05
2.066788738841773e-05
1.7912169069961946e-05
1.2400732433050376e-05
2.3423605706873515e-05
3.9957915617608246e-05
4.546935225451981e-05
3.9957915617608246e-05
3.169076066224089e-05
3.444647898069667e-05
5.098078889143139e-05
6.200366216525454e-05
6.200366216525454e-05
5.649222552834297e-05
5.649222552834297e-05
7.02708171206219e-05
8.68051270313566e-05
8.68051270313566e-05
7.853797207598924e-05
7.578225375753347e-05
8.956084534981241e-05
0.00010333943694209132
0.00010885087357900291
0.00010058371862363556
0.00011436231021591448
0.00013089662012664922
0.00013365233844510492
0.00013089662012664922
0.00013916377508201656
0.00016120952162966288
0.00017774383154039756
0.00018049954985885336
0.0001694766765850302
0.00016396523994811866
0.0001694766765850302
0.00018876670481422076
0.00020254529640649968
0.00020805673304341124
0.00020530101472495543
0.00020530101472495543
0.000210812451361867
0.0002190796063172344
0.00021632388799877858
0.000210812451361867
0.00019978957808804387
0.00020530101472495543
0.0002135681696803228
0.00020530101472495543
0.00018049954985885336
0.0001694766765850302
0.00017498811322194178
0.0001832552681773092
0.00018049954985885336
0.00016672095826657444
0.0001556980849927513
0.00014743093003738393
0.00014191949340047234
0.0001253851834897376
9.507228198672396e-05
5.649222552834297e-05
3.444647898069667e-05
2.8935042343785094e-05
1.7912169069961946e-05
-4.133577477684346e-06
-3.4446478980697995e-05
-5.6492225528344285e-05
-5.9247943846800084e-05
-5.9247943846800084e-05
-6.751509880216745e-05
-8.129369039444639e-05
-9.507228198672531e-05
-8.404940871290214e-05
-7.027081712062322e-05
-7.302653543907902e-05
-8.129369039444639e-05
-8.956084534981374e-05
-8.404940871290214e-05
-6.751509880216745e-05
-6.751509880216745e-05
-7.85379720759906e-05
-8.680512703135793e-05
-7.85379720759906e-05
-6.200366216525588e-05
-5.9247943846800084e-05
-6.475938048371164e-05
-7.302653543907902e-05
-7.302653543907902e-05
-5.9247943846800084e-05
-5.9247943846800084e-05
-6.475938048371164e-05
-6.475938048371164e-05
-4.8225070572976926e-05
-3.720219729915378e-05
-4.5469352254521147e-05
-5.6492225528344285e-05
-6.200366216525588e-05
-5.098078889143272e-05
-3.995791561760957e-05
-4.5469352254521147e-05
-5.3736507209888505e-05
-5.3736507209888505e-05
-3.4446478980697995e-05
-1.7912169069963278e-05
-2.6179324025330647e-05
-4.5469352254521147e-05
-6.200366216525588e-05
-5.9247943846800084e-05
-4.2713633936065354e-05
-4.2713633936065354e-05
-5.3736507209888505e-05
-6.751509880216745e-05
-6.751509880216745e-05
-4.5469352254521147e-05
-3.4446478980697995e-05
-4.5469352254521147e-05
-6.751509880216745e-05
-7.302653543907902e-05
-6.475938048371164e-05
-5.6492225528344285e-05
-6.200366216525588e-05
-7.57822537575348e-05
-7.85379720759906e-05
-6.751509880216745e-05
-5.9247943846800084e-05
-6.475938048371164e-05
-7.302653543907902e-05
-7.302653543907902e-05
-6.751509880216745e-05
-5.9247943846800084e-05
-6.475938048371164e-05
-7.57822537575348e-05
-8.404940871290214e-05
-7.57822537575348e-05
-6.751509880216745e-05
-6.751509880216745e-05
-7.85379720759906e-05
-9.507228198672531e-05
-9.507228198672531e-05
-7.57822537575348e-05
-5.9247943846800084e-05
-6.200366216525588e-05
-7.85379720759906e-05
-8.680512703135793e-05
-8.129369039444639e-05
-7.302653543907902e-05
-7.85379720759906e-05
-8.956084534981374e-05
-8.956084534981374e-05
-7.85379720759906e-05
-7.027081712062322e-05
-7.302653543907902e-05
-8.129369039444639e-05
-8.956084534981374e-05
-8.680512703135793e-05
-7.57822537575348e-05
-8.404940871290214e-05
-8.956084534981374e-05
-8.680512703135793e-05
-7.027081712062322e-05
-6.751509880216745e-05
-7.57822537575348e-05
-8.404940871290214e-05
-8.404940871290214e-05
-7.027081712062322e-05
-6.475938048371164e-05
-7.302653543907902e-05
-8.680512703135793e-05
-8.680512703135793e-05
-7.027081712062322e-05
-6.200366216525588e-05
-6.751509880216745e-05
-7.027081712062322e-05
-7.027081712062322e-05
-6.200366216525588e-05
-4.8225070572976926e-05
-4.5469352254521147e-05
-3.995791561760957e-05
-2.342360570687485e-05
1.3778591592272275e-06
1.3778591592272275e-06
-1.240073243305171e-05
-3.4446478980697995e-05
-5.098078889143272e-05
-4.5469352254521147e-05
-2.8935042343786426e-05
-1.7912169069963278e-05
-2.6179324025330647e-05
-5.3736507209888505e-05
-6.751509880216745e-05
-6.200366216525588e-05
-5.9247943846800084e-05
-6.751509880216745e-05
-8.129369039444639e-05
-8.680512703135793e-05
-7.302653543907902e-05
-6.475938048371164e-05
-7.302653543907902e-05
-8.680512703135793e-05
-9.231656366826955e-05
-8.129369039444639e-05
-6.751509880216745e-05
-6.751509880216745e-05
-7.57822537575348e-05
-8.129369039444639e-05
-7.57822537575348e-05
-6.751509880216745e-05
-7.302653543907902e-05
-0.00010333943694209268
-0.0001364080567635621
-0.0001171180285343716
2.8935042343785094e-05
0.00027143825436789435
0.0005690558327611192
0.000908009185931181
0.0012910540321965354
0.0014563971313038828
0.001224916792553597
0.0007950247348744939
0.0003982012970168605
-1.7912169069963278e-05
-7.027081712062322e-05
-5.6492225528344285e-05
-3.4446478980697995e-05
-1.5156450751507488e-05
-1.377859159228559e-06
9.64501411459459e-06
-6.889295796140132e-06
-2.8935042343786426e-05
-4.2713633936065354e-05
-3.4446478980697995e-05
-1.7912169069963278e-05
-1.240073243305171e-05
-2.066788738841907e-05
-2.8935042343786426e-05
-1.5156450751507488e-05
1.3778591592272275e-06
1.3778591592272275e-06
-1.240073243305171e-05
-2.342360570687485e-05
-1.7912169069963278e-05
-1.377859159228559e-06
1.5156450751506162e-05
1.2400732433050376e-05
-1.377859159228559e-06
-4.133577477684346e-06
9.64501411459459e-06
2.8935042343785094e-05
2.8935042343785094e-05
2.066788738841773e-05
1.2400732433050376e-05
2.6179324025329308e-05
4.546935225451981e-05
4.546935225451981e-05
3.444647898069667e-05
3.169076066224089e-05
4.546935225451981e-05
6.475938048371032e-05
6.751509880216611e-05
5.649222552834297e-05
5.373650720988717e-05
6.475938048371032e-05
8.129369039444505e-05
8.404940871290084e-05
8.129369039444505e-05
7.578225375753347e-05
8.129369039444505e-05
9.782800030517979e-05
0.00011160659189745871
0.00010885087357900291
0.00010058371862363556
0.00010609515526054714
0.00012262946517128183
0.00013640805676356078
0.00013640805676356078
0.00013365233844510492
0.00013365233844510492
0.00015294236667429551
0.000172232394903486
0.00018049954985885336
0.00017498811322194178
0.000172232394903486
0.00019152242313267648
0.000210812451361867
0.0002135681696803228
0.00020805673304341124
0.00020530101472495543
0.0002190796063172344
0.00022459104295414594
0.000210812451361867
0.00019427814145113231
0.00019427814145113231
0.00020805673304341124
0.00020805673304341124
0.0001970338597695881
0.00017774383154039756
0.00016672095826657444
0.00017498811322194178
0.00017774383154039756
0.00016120952162966288
0.00013365233844510492
0.00010885087357900291
9.782800030517979e-05
8.956084534981241e-05
6.200366216525454e-05
3.444647898069667e-05
9.64501411459459e-06
-1.377859159228559e-06
-1.5156450751507488e-05
-3.995791561760957e-05
-6.475938048371164e-05
-8.680512703135793e-05
-9.231656366826955e-05
-8.129369039444639e-05
-8.129369039444639e-05
-9.507228198672531e-05
-0.00010609515526054846
-0.00010609515526054846
-8.956084534981374e-05
-7.027081712062322e-05
-6.751509880216745e-05
-8.404940871290214e-05
-9.507228198672531e-05
-8.404940871290214e-05
-7.027081712062322e-05
-7.85379720759906e-05
-8.956084534981374e-05
-9.231656366826955e-05
-7.57822537575348e-05
-5.6492225528344285e-05
-4.8225070572976926e-05
-5.9247943846800084e-05
-7.302653543907902e-05
-7.027081712062322e-05
-5.6492225528344285e-05
-5.3736507209888505e-05
-5.6492225528344285e-05
-5.9247943846800084e-05
-5.3736507209888505e-05
-5.098078889143272e-05
-5.098078889143272e-05
-6.200366216525588e-05
-7.027081712062322e-05
-6.751509880216745e-05
-5.3736507209888505e-05
-4.2713633936065354e-05
-4.8225070572976926e-05
-5.9247943846800084e-05
-6.200366216525588e-05
-4.8225070572976926e-05
-3.720219729915378e-05
-5.3736507209888505e-05
-6.475938048371164e-05
-5.3736507209888505e-05
-4.5469352254521147e-05
-4.8225070572976926e-05
-6.200366216525588e-05
-7.57822537575348e-05
-7.302653543907902e-05
-5.9247943846800084e-05
-5.9247943846800084e-05
-7.302653543907902e-05
-8.404940871290214e-05
-8.129369039444639e-05
-6.751509880216745e-05
-6.200366216525588e-05
-7.027081712062322e-05
-8.129369039444639e-05
-8.404940871290214e-05
-7.027081712062322e-05
-6.200366216525588e-05
-6.475938048371164e-05
-7.85379720759906e-05
-8.404940871290214e-05
-7.302653543907902e-05
-6.475938048371164e-05
-6.475938048371164e-05
-7.57822537575348e-05
-8.404940871290214e-05
-7.302653543907902e-05
-5.9247943846800084e-05
-5.9247943846800084e-05
-7.302653543907902e-05
-8.404940871290214e-05
-7.57822537575348e-05
-6.200366216525588e-05
-6.200366216525588e-05
-7.302653543907902e-05
-8.129369039444639e-05
-7.85379720759906e-05
-7.027081712062322e-05
-6.475938048371164e-05
-7.027081712062322e-05
-8.680512703135793e-05
-8.956084534981374e-05
-7.027081712062322e-05
-6.200366216525588e-05
-6.751509880216745e-05
-8.129369039444639e-05
-8.129369039444639e-05
-6.751509880216745e-05
-5.6492225528344285e-05
-6.200366216525588e-05
-7.85379720759906e-05
-8.404940871290214e-05
-7.027081712062322e-05
-5.9247943846800084e-05
-6.475938048371164e-05
-7.85379720759906e-05
-8.680512703135793e-05
-7.85379720759906e-05
-6.751509880216745e-05
-6.475938048371164e-05
-7.027081712062322e-05
-8.129369039444639e-05
-7.85379720759906e-05
-6.475938048371164e-05
-7.027081712062322e-05
-7.85379720759906e-05
-8.129369039444639e-05
-6.751509880216745e-05
-5.6492225528344285e-05
-6.200366216525588e-05
-7.302653543907902e-05
-7.302653543907902e-05
-5.3736507209888505e-05
-3.720219729915378e-05
-3.720219729915378e-05
-4.2713633936065354e-05
-2.8935042343786426e-05
-1.377859159228559e-06
2.066788738841773e-05
1.2400732433050376e-05
-1.5156450751507488e-05
-4.2713633936065354e-05
-4.8225070572976926e-05
-3.720219729915378e-05
-3.169076066224221e-05
-3.995791561760957e-05
-4.8225070572976926e-05
-4.2713633936065354e-05
-3.720219729915378e-05
-5.098078889143272e-05
-6.475938048371164e-05
-7.57822537575348e-05
-7.57822537575348e-05
-6.200366216525588e-05
-5.3736507209888505e-05
-6.475938048371164e-05
-7.302653543907902e-05
-6.475938048371164e-05
-5.3736507209888505e-05
-5.3736507209888505e-05
-6.200366216525588e-05
-7.302653543907902e-05
-8.129369039444639e-05
-6.200366216525588e-05
-4.5469352254521147e-05
-5.9247943846800084e-05
-8.129369039444639e-05
-0.00010885087357900426
-0.0001391637750820179
-0.0001584538033112084
-0.0001171180285343716
5.098078889143139e-05
0.0003375754940108332
0.0007343989318684667
0.0012001153276874944
0.001671343160143434
0.001905579217212176
0.0017347246814679172
0.001318611215381093
0.0008887191577019906
0.0004918957198443572
0.00016120952162966288
-2.066788738841907e-05
-4.8225070572976926e-05
-1.240073243305171e-05
6.8892957961388014e-06
-6.889295796140132e-06
-3.4446478980697995e-05
-5.098078889143272e-05
-3.4446478980697995e-05
-3.720219729915378e-05
-4.5469352254521147e-05
-5.3736507209888505e-05
-4.5469352254521147e-05
-3.169076066224221e-05
-2.6179324025330647e-05
-3.4446478980697995e-05
-4.2713633936065354e-05
-3.720219729915378e-05
-2.066788738841907e-05
-1.240073243305171e-05
-1.7912169069963278e-05
-2.6179324025330647e-05
-2.342360570687485e-05
-9.64501411459592e-06
1.3778591592272275e-06
-6.889295796140132e-06
-1.5156450751507488e-05
-1.5156450751507488e-05
1.3778591592272275e-06
1.7912169069961946e-05
1.7912169069961946e-05
9.64501411459459e-06
6.8892957961388014e-06
2.066788738841773e-05
3.444647898069667e-05
3.720219729915245e-05
3.169076066224089e-05
2.3423605706873515e-05
3.444647898069667e-05
5.9247943846798756e-05
7.578225375753347e-05
6.751509880216611e-05
5.098078889143139e-05
5.649222552834297e-05
7.853797207598924e-05
7.578225375753347e-05
6.200366216525454e-05
5.649222552834297e-05
6.475938048371032e-05
8.68051270313566e-05
0.00010058371862363556
0.00010058371862363556
9.23165636682682e-05
9.782800030517979e-05
0.00011987374685282605
0.00013640805676356078
