0.00042300276188296266
0.0004367813534752416
0.0004422927901121532
0.0004450485084306089
0.000456071381704432
0.0004726056916151668
0.0004863842832074457
0.0005001628747997245
0.0005029185931181804
0.000508430029755092
0.0005139414663920035
0.0005249643396658268
0.0005332314946211942
0.0005414986495765614
0.0005414986495765614
0.0005387429312581057
0.0005387429312581057
0.0005387429312581057
0.0005277200579842825
0.0005139414663920035
0.0005056743114366363
0.0005029185931181804
0.0005111857480735478
0.0005111857480735478
0.0005001628747997245
0.0005001628747997245
0.0005056743114366363
0.0005139414663920035
0.0005166971847104594
0.0005139414663920035
0.0005056743114366363
0.0004891400015259016
0.0004808728465705341
0.00047536140993362247
0.000469849973296711
0.000456071381704432
0.0004367813534752416
0.00041197988860913943
0.000392689860379949
0.0003844227054245816
0.0003844227054245816
0.0003844227054245816
0.00037615555046921414
0.000365132677195391
0.0003623769588769353
0.00036788839551384685
0.00037615555046921414
0.00037891126878767
0.00037615555046921414
0.00037891126878767
0.0003844227054245816
0.00038993414206149314
0.0003954455786984048
0.0003982012970168605
0.0004064684519722279
0.0004064684519722279
0.0003982012970168605
0.000392689860379949
0.00041197988860913943
0.00041473560692759526
0.00041749132524605104
0.00042300276188296266
0.0004340256351567857
0.0004422927901121532
0.0004450485084306089
0.0004505599450675205
0.0004588271000228878
0.000469849973296711
0.0004670942549782553
0.0004478042267490647
0.0004478042267490647
0.0004505599450675205
0.0004505599450675205
0.0004533156633859763
0.0004533156633859763
0.0004588271000228878
0.0004588271000228878
0.0004670942549782553
0.0004670942549782553
0.000469849973296711
0.0004726056916151668
0.00047536140993362247
0.0004808728465705341
0.0004863842832074457
0.0004891400015259016
0.0004891400015259016
0.0004863842832074457
0.00048362856488898997
0.00048362856488898997
0.0004863842832074457
0.0004946514381628131
0.0004974071564812689
0.0005001628747997245
0.0005056743114366363
0.0005111857480735478
0.0005139414663920035
0.0005111857480735478
0.0005139414663920035
0.0005249643396658268
0.0005359872129396498
0.0005332314946211942
0.0005304757763027383
0.0005222086213473709
0.0005222086213473709
0.0005249643396658268
0.0005359872129396498
0.0005442543678950173
0.0005525215228503846
0.0005580329594872961
0.0005635443961242077
0.000560788677805752
0.0005580329594872961
0.0005663001144426635
0.0005745672693980309
0.0005718115510795751
0.0005663001144426635
0.0005663001144426635
0.0005718115510795751
0.0005828344243533982
0.0005938572976272215
0.0006048801709010444
0.0006214144808117793
0.000637948790722514
0.0006517273823147929
0.0006462159456778814
0.0006544831006332488
0.000687551720454718
0.0007261317769130989
0.0007426660868238338
0.0007261317769130989
0.0006985745937285414
0.000676528847180895
0.0006710174105439835
0.000679284565499351
0.0006903074387731741
0.0006985745937285414
0.0006985745937285414
0.000687551720454718
0.0006710174105439835
0.0006682616922255276
0.0006737731288624392
0.000676528847180895
0.0006820402838178067
0.000679284565499351
0.000676528847180895
0.0006820402838178067
0.000687551720454718
0.000687551720454718
0.0006903074387731741
0.000701330312046997
0.0007123531853208202
0.0007233760585946433
0.0007233760585946433
0.0007123531853208202
0.0007095974670023644
0.000701330312046997
0.0006820402838178067
0.0006958188754100854
0.0008253376363775078
0.0010623294117647053
0.0013571912718394743
0.0016658317235065223
0.0019910064850843048
0.0020984794995040803
0.0018780220340276189
0.001489465751125352
0.0011615352712291134
0.00097414642557412
0.0008639176928358884
0.0007950247348744939
0.0008198261997405958
0.000858406256198977
0.0008611619745174325
0.0008611619745174325
0.0008666734111543443
0.0008694291294728002
0.0008721848477912556
0.0008666734111543443
0.0008666734111543443
0.0008666734111543443
0.0008694291294728002
0.0008832077210650791
0.0008942305943389022
0.0008997420309758136
0.0009024977492942696
0.0009107649042496368
0.0009135206225680924
0.0009190320592050041
0.0009272992141603715
0.0009383220874341949
0.0009410778057526506
0.0009410778057526506
0.0009438335240711064
0.000949344960708018
0.0009631235523002968
0.0009769021438925758
0.0009769021438925758
0.0009796578622110316
0.0009879250171663987
0.0010044593270771337
0.0010182379186694126
0.0010292607919432355
0.0010347722285801472
0.0010402836652170589
0.0010457951018539703
0.0010568179751277937
0.0010650851300831607
0.0010761080033569843
0.0010871308766308072
0.0010981537499046305
0.0011091766231784534
0.0011174437781338207
0.0011174437781338207
0.0011229552147707324
0.0011339780880445555
0.0011532681162737465
0.001167046707866025
0.001180825299458304
0.001180825299458304
0.001180825299458304
0.0011918481727321271
0.0012001153276874944
0.0012028710460059502
0.0012083824826428621
0.0012138939192797731
0.0012083824826428621
0.001205626764324406
0.0012111382009613175
0.0012194053559166852
0.0012166496375982292
0.0012001153276874944
0.0011890924544136717
0.0011890924544136717
0.0011890924544136717
0.0011918481727321271
0.0011918481727321271
0.0011918481727321271
0.0011863367360952157
0.0011835810177767598
0.001180825299458304
0.0011863367360952157
0.0011835810177767598
0.0011725581445029367
0.0011532681162737465
0.0011312223697260999
0.0011229552147707324
0.0011064209048599978
0.001089886594949263
0.0010568179751277937
0.0010347722285801472
0.0010292607919432355
0.0010265050736247801
0.0010182379186694126
0.0010044593270771337
0.0010044593270771337
0.0010099707637140451
0.001007215045395589
0.001007215045395589
0.001007215045395589
0.0010099707637140451
0.0010127264820325008
0.0010209936369878683
0.0010265050736247801
0.0010265050736247801
0.0010320165102616916
0.0010347722285801472
0.001037527946898603
0.0010347722285801472
0.0010430393835355147
0.0010430393835355147
0.0010402836652170589
0.001037527946898603
0.001037527946898603
0.0010430393835355147
0.001048550820172426
0.0010540622568093376
0.0010568179751277937
0.0010540622568093376
0.0010623294117647053
0.0010623294117647053
0.0010623294117647053
0.0010568179751277937
0.0010568179751277937
0.001051306538490882
0.0010457951018539703
0.0010457951018539703
0.0010540622568093376
0.001051306538490882
0.001051306538490882
0.001051306538490882
0.0010540622568093376
0.001051306538490882
0.0010540622568093376
0.0010540622568093376
0.0010623294117647053
0.0010733522850385282
0.0010843751583123511
0.0010761080033569843
0.0010650851300831607
0.0010678408484016168
0.0010733522850385282
0.0010678408484016168
0.0010705965667200726
0.0010705965667200726
0.0010733522850385282
0.0010678408484016168
0.0010705965667200726
0.0010705965667200726
0.0010705965667200726
0.0010761080033569843
0.0010843751583123511
0.0010816194399938957
0.0010816194399938957
0.0010788637216754397
0.0010816194399938957
0.0010843751583123511
0.0010843751583123511
0.0010816194399938957
0.0010871308766308072
0.001089886594949263
0.0010926423132677188
0.0010926423132677188
0.0010871308766308072
0.0010816194399938957
0.0010843751583123511
0.001089886594949263
0.001089886594949263
0.0010953980315861747
0.0011009094682230861
0.001103665186541542
0.0011009094682230861
0.0011119323414969095
0.0011174437781338207
0.0011201994964522765
0.0011229552147707324
0.001136733806363011
0.001169802426184481
0.0012083824826428621
0.0012221610742351409
0.0012001153276874944
0.0011725581445029367
0.0011532681162737465
0.0011505123979552907
0.0011505123979552907
0.0011477566796368347
0.0011422452429999228
0.0011422452429999228
0.0011312223697260999
0.0011174437781338207
0.0011064209048599978
0.0010981537499046305
0.0010953980315861747
0.0010926423132677188
0.0011009094682230861
0.0011119323414969095
0.0011146880598153653
0.0011009094682230861
0.0010953980315861747
0.0010926423132677188
0.0011009094682230861
0.0011064209048599978
0.0011091766231784534
0.0011064209048599978
0.001103665186541542
0.001089886594949263
0.0010761080033569843
0.0010540622568093376
0.0010623294117647053
0.0011753138628213923
0.0013902598916609437
0.0016740988784618896
0.001993762203402761
0.0023354712748912786
0.0024842800640878914
0.002291379781795986
0.0019028234988937198
0.0015556029907682909
0.0013434126802471958
0.001205626764324406
0.0011174437781338207
0.0011394895246814672
0.001180825299458304
0.0011946038910505827
0.0011946038910505827
0.0011835810177767598
0.0011725581445029367
0.001169802426184481
0.0011725581445029367
0.001169802426184481
0.001167046707866025
0.001169802426184481
0.0011753138628213923
0.0011863367360952157
0.0011918481727321271
0.0012028710460059502
0.0012028710460059502
0.0012028710460059502
0.0012028710460059502
0.0012138939192797731
0.0012221610742351409
0.001224916792553597
0.0012276725108720525
0.0012304282291905084
0.0012414511024643313
0.0012524739757381546
0.0012607411306935217
0.0012745197222858006
0.001285542595559624
0.0012910540321965354
0.0012910540321965354
0.0012965654688334468
0.0013048326237888143
0.0013075883421072702
0.0013158554970626377
0.001324122652018005
0.001324122652018005
0.0013296340886549166
0.001335145525291828
0.001337901243610284
0.0013406569619287395
0.0013434126802471958
0.0013434126802471958
0.0013434126802471958
0.0013461683985656512
0.0013516798352025624
0.0013516798352025624
0.0013489241168841066
0.0013544355535210185
0.0013544355535210185
0.00135994699015793
0.0013709698634317533
0.001376481300068665
0.001379237018387121
0.001376481300068665
0.0013737255817502093
0.0013654584267948416
0.00135994699015793
0.0013571912718394743
0.0013544355535210185
0.0013434126802471958
0.001332389806973372
0.0013296340886549166
0.001318611215381093
0.0013130997787441814
0.0013130997787441814
0.0013158554970626377
0.0013130997787441814
0.0013103440604257258
0.0013075883421072702
0.0012965654688334468
0.001271764003967345
0.0012607411306935217
0.0012414511024643313
0.0012166496375982292
0.0011946038910505827
0.001178069581139848
0.0011615352712291134
0.0011394895246814672
0.0011201994964522765
0.0010981537499046305
0.0010816194399938957
0.0010705965667200726
0.0010595736934462493
0.001048550820172426
0.0010430393835355147
0.0010402836652170589
0.0010402836652170589
0.001037527946898603
0.001037527946898603
0.0010347722285801472
0.0010402836652170589
0.001051306538490882
0.0010568179751277937
0.0010540622568093376
0.0010430393835355147
0.0010347722285801472
0.0010402836652170589
0.0010457951018539703
0.001048550820172426
0.0010457951018539703
0.001048550820172426
0.001048550820172426
0.001051306538490882
0.0010457951018539703
0.001037527946898603
0.001037527946898603
0.0010402836652170589
0.001037527946898603
0.0010457951018539703
0.001048550820172426
0.0010540622568093376
0.0010540622568093376
0.0010540622568093376
0.001048550820172426
0.001048550820172426
0.0010402836652170589
0.0010347722285801472
0.0010347722285801472
0.001037527946898603
0.0010320165102616916
0.0010292607919432355
0.0010265050736247801
0.0010320165102616916
0.0010292607919432355
0.0010237493553063243
0.0010154822003509568
0.0010154822003509568
0.0010154822003509568
0.0010237493553063243
0.0010209936369878683
0.0010154822003509568
0.0010182379186694126
0.0010182379186694126
0.0010182379186694126
0.0010127264820325008
0.0010099707637140451
0.0010044593270771337
0.0010044593270771337
0.0010017036087586776
0.0010044593270771337
0.001007215045395589
0.001007215045395589
0.0009961921721217662
0.0009934364538033101
0.0009934364538033101
0.0009879250171663987
0.0009796578622110316
0.0009796578622110316
0.000985169298847943
0.0009934364538033101
0.0009961921721217662
0.0009906807354848547
0.0009879250171663987
0.000985169298847943
0.0009906807354848547
0.0009906807354848547
0.0009906807354848547
0.0009934364538033101
0.0010017036087586776
0.001007215045395589
0.0010127264820325008
0.0010154822003509568
0.0010237493553063243
0.0010265050736247801
0.0010402836652170589
0.0010705965667200726
0.0011009094682230861
0.0011119323414969095
0.0011009094682230861
0.0010816194399938957
0.0010678408484016168
0.0010568179751277937
0.0010568179751277937
0.001048550820172426
0.0010457951018539703
0.001037527946898603
0.0010265050736247801
0.0010099707637140451
0.000998947890440222
0.0009934364538033101
0.0009879250171663987
0.000982413580529487
0.0009796578622110316
0.000982413580529487
0.0009769021438925758
0.00097414642557412
0.000971390707255664
0.0009686349889372082
0.000971390707255664
0.0009769021438925758
0.000982413580529487
0.0009906807354848547
0.0009879250171663987
0.0009769021438925758
0.0009576121156633854
0.0009272992141603715
0.0009245434958419158
0.0010209936369878683
0.0012359396658274198
0.0015225343709468217
0.0018477091325246043
0.0023878299229419388
0.002192173922331578
0.001795350484473944
0.0014178170748455018
0.0011890924544136717
0.0010430393835355147
0.0009769021438925758
0.0009879250171663987
0.0010320165102616916
0.0010568179751277937
0.0010650851300831607
0.0010568179751277937
0.0010402836652170589
0.0010347722285801472
0.0010347722285801472
0.0010320165102616916
0.0010292607919432355
0.0010237493553063243
0.0010237493553063243
0.0010182379186694126
0.0010127264820325008
0.0010127264820325008
0.0010182379186694126
0.0010209936369878683
0.0010154822003509568
0.0010127264820325008
0.0010099707637140451
0.0010099707637140451
0.0010099707637140451
0.0010127264820325008
0.0010099707637140451
0.0010127264820325008
0.0010154822003509568
0.0010209936369878683
0.0010237493553063243
0.0010292607919432355
0.0010292607919432355
0.0010347722285801472
0.0010402836652170589
0.001048550820172426
0.0010540622568093376
0.0010568179751277937
0.0010568179751277937
0.0010623294117647053
0.0010650851300831607
0.0010678408484016168
0.0010733522850385282
0.0010788637216754397
0.0010788637216754397
0.0010843751583123511
0.0010926423132677188
0.0010981537499046305
0.0011009094682230861
0.001103665186541542
0.0011091766231784534
0.0011229552147707324
0.0011312223697260999
0.001136733806363011
0.0011312223697260999
0.001128466651407644
0.001125710933089188
0.001128466651407644
0.001136733806363011
0.0011394895246814672
0.0011312223697260999
0.0011064209048599978
0.001103665186541542
0.0011064209048599978
0.0011119323414969095
0.0011064209048599978
0.0010953980315861747
0.0010816194399938957
0.0010733522850385282
0.0010705965667200726
0.0010705965667200726
0.0010650851300831607
0.0010650851300831607
0.0010568179751277937
0.001051306538490882
0.001037527946898603
0.0010154822003509568
0.0009934364538033101
0.0009769021438925758
0.0009548563973449294
0.0009328106507972832
0.000908009185931181
0.0008887191577019906
0.0008749405661097116
0.000855650537880521
0.0008473833829251538
0.0008363605096513305
0.0008280933546959632
0.0008225819180590517
0.00081707048142214
0.00081707048142214
0.0008115590447852286
0.00081707048142214
0.00081707048142214
0.0008143147631036844
0.0008198261997405958
0.0008198261997405958
0.0008115590447852286
0.000806047608148317
0.0008005361715114055
0.0008032918898298613
0.0008115590447852286
0.0008115590447852286
0.0008115590447852286
0.0008115590447852286
0.0008115590447852286
0.0008115590447852286
0.0008032918898298613
0.0008005361715114055
0.0008005361715114055
0.0007977804531929496
0.0007922690165560381
0.0007867575799191265
0.0007867575799191265
0.0007895132982375822
0.0007784904249637591
0.0007757347066453035
0.0007784904249637591
0.0007784904249637591
0.0007757347066453035
0.000767467551689936
0.0007619561150530243
0.0007619561150530243
0.0007619561150530243
0.0007564446784161128
0.000753688960097657
0.0007481775234607456
0.0007454218051422897
0.0007481775234607456
0.0007481775234607456
0.0007481775234607456
0.0007454218051422897
0.0007399103685053779
0.0007316432135500107
0.0007261317769130989
0.0007233760585946433
0.0007261317769130989
0.0007261317769130989
0.0007316432135500107
0.0007316432135500107
0.0007261317769130989
0.0007233760585946433
0.0007206203402761877
0.000717864621957732
0.0007151089036392759
0.0007151089036392759
0.0007151089036392759
0.000717864621957732
0.000717864621957732
0.0007151089036392759
0.0007095974670023644
0.0007068417486839086
0.000701330312046997
0.0007040860303654528
0.0007040860303654528
0.0007040860303654528
0.0007068417486839086
0.0007123531853208202
0.0007123531853208202
0.0007151089036392759
0.0007288874952315547
0.0007316432135500107
0.0007343989318684667
0.0007316432135500107
0.0007343989318684667
0.0007619561150530243
0.0007812461432822147
0.0007812461432822147
0.0007702232700083917
0.000753688960097657
0.0007343989318684667
0.0007316432135500107
0.0007288874952315547
0.0007206203402761877
0.000717864621957732
0.0007123531853208202
0.000701330312046997
0.0006847960021362622
0.000676528847180895
0.000679284565499351
0.000679284565499351
0.0006737731288624392
0.0006710174105439835
0.000676528847180895
0.000679284565499351
0.0006820402838178067
0.0006847960021362622
0.0006847960021362622
0.0006847960021362622
0.0006820402838178067
0.0006820402838178067
0.0006820402838178067
0.0006737731288624392
0.0006544831006332488
0.0006269259174486908
0.0006434602273594254
0.0007784904249637591
0.0010154822003509568
0.0013103440604257258
0.001630007385366597
0.001946914991989013
0.001971716456855115
0.0016906331883726243
0.0013020769054703587
0.000985169298847943
0.0007757347066453035
0.000637948790722514
0.0005966130159456772
0.0006296816357671465
0.0006737731288624392
0.0006985745937285414
0.0007068417486839086
0.0006985745937285414
0.0006903074387731741
0.0006903074387731741
0.0006930631570916297
0.0006985745937285414
0.000701330312046997
0.0007040860303654528
0.0006958188754100854
0.0006847960021362622
0.000679284565499351
0.0006737731288624392
0.000676528847180895
0.000676528847180895
0.0006682616922255276
0.0006682616922255276
0.0006737731288624392
0.0006737731288624392
0.000676528847180895
0.000676528847180895
0.000676528847180895
0.0006820402838178067
0.0006847960021362622
0.0006820402838178067
0.0006820402838178067
0.0006847960021362622
0.0006930631570916297
0.0006958188754100854
0.0006985745937285414
0.0006985745937285414
0.0007040860303654528
0.0007068417486839086
0.0007095974670023644
0.0007123531853208202
0.0007233760585946433
0.0007261317769130989
0.0007316432135500107
0.0007399103685053779
0.0007399103685053779
0.0007454218051422897
0.0007619561150530243
0.000767467551689936
0.0007619561150530243
0.0007647118333714802
0.0007757347066453035
0.0007867575799191265
0.0007950247348744939
0.0007977804531929496
0.0008005361715114055
0.0008005361715114055
0.0008032918898298613
0.000806047608148317
0.0008005361715114055
0.0008005361715114055
0.0007950247348744939
0.0007812461432822147
0.0007729789883268476
0.0007702232700083917
0.0007647118333714802
0.0007564446784161128
0.0007481775234607456
0.0007426660868238338
0.0007399103685053779
0.0007343989318684667
0.0007288874952315547
0.0007288874952315547
0.0007261317769130989
0.0007261317769130989
0.0007206203402761877
0.0007040860303654528
0.0006903074387731741
0.0006710174105439835
0.0006462159456778814
0.0006214144808117793
0.000599368734264133
0.0005773229877164866
0.0005635443961242077
0.000547010086213473
0.0005277200579842825
0.0005111857480735478
0.0005029185931181804
0.0005001628747997245
0.0005029185931181804
0.0005056743114366363
0.000508430029755092
0.0005029185931181804
0.0005001628747997245
0.0004946514381628131
0.0004863842832074457
0.0004891400015259016
0.0004808728465705341
0.0004726056916151668
0.0004726056916151668
0.0004781171282520784
0.0004808728465705341
0.0004808728465705341
0.0004808728465705341
0.0004808728465705341
0.00048362856488898997
0.0004808728465705341
0.00048362856488898997
0.0004781171282520784
0.00047536140993362247
0.0004781171282520784
0.00047536140993362247
0.0004726056916151668
0.0004670942549782553
0.000456071381704432
0.0004505599450675205
0.0004533156633859763
0.0004505599450675205
0.0004450485084306089
0.0004533156633859763
0.0004505599450675205
0.0004478042267490647
0.0004395370717936973
0.0004395370717936973
0.0004395370717936973
0.0004422927901121532
0.0004395370717936973
0.0004367813534752416
0.0004340256351567857
0.00043126991683832994
0.00042851419851987416
0.00041749132524605104
0.00041473560692759526
0.00041749132524605104
0.00042024704356450677
0.00042024704356450677
0.00041473560692759526
0.00041197988860913943
0.00041197988860913943
0.00041473560692759526
0.00041197988860913943
0.00040371273365377215
0.00040371273365377215
0.0004064684519722279
0.00041197988860913943
0.0004092241702906837
0.0004009570153353164
0.0003982012970168605
0.0004092241702906837
0.0004092241702906837
0.0004009570153353164
0.000392689860379949
0.00038993414206149314
0.00038717842374303736
0.0003844227054245816
0.0003816669871061258
0.0003844227054245816
0.0003844227054245816
0.0003844227054245816
0.0003816669871061258
0.0003844227054245816
0.0003844227054245816
0.00038993414206149314
0.0003954455786984048
0.0004064684519722279
0.00041749132524605104
0.00042024704356450677
0.00042575848020141833
0.0004533156633859763
0.0004781171282520784
0.0004670942549782553
0.0004422927901121532
0.00042024704356450677
0.00041473560692759526
0.00042300276188296266
0.00042300276188296266
0.0004064684519722279
0.000392689860379949
0.00037891126878767
0.0003623769588769353
0.00035135408560311223
0.0003485983672846564
0.0003485983672846564
0.00034584264896620056
0.0003375754940108332
0.0003293083390554659
0.00032104118410009855
0.0003182854657816428
0.00032104118410009855
0.00032379690241855427
0.00032379690241855427
0.00032104118410009855
0.000315529747463187
0.000315529747463187
0.0003127740291447311
0.000301751155870908
0.0002741939726863501
0.0002549039444571596
0.0003293083390554659
0.0005222086213473709
0.0007840018616006707
0.0010843751583123511
0.0014205727931639574
0.0016906331883726243
0.0016410302586404204
0.0013158554970626377
0.0009300549324788276
0.0006655059739070718
0.0005001628747997245
0.000365132677195391
0.0003182854657816428
0.0003596212405584795
0.00038717842374303736
0.0003982012970168605
0.0003954455786984048
0.0003844227054245816
0.00037891126878767
0.0003816669871061258
0.00038993414206149314
0.00040371273365377215
0.00042300276188296266
0.0004478042267490647
0.0004726056916151668
0.00048362856488898997
0.00047536140993362247
0.0004643385366597993
0.0004533156633859763
0.0004450485084306089
0.0004478042267490647
0.0004422927901121532
0.0004395370717936973
0.0004367813534752416
0.0004340256351567857
0.0004367813534752416
0.0004505599450675205
0.00047536140993362247
0.0005001628747997245
0.000508430029755092
0.0004974071564812689
0.0004946514381628131
0.0004974071564812689
0.0005056743114366363
0.0005056743114366363
0.0005056743114366363
0.0004974071564812689
0.0004891400015259016
0.0004891400015259016
0.0004891400015259016
0.0004891400015259016
0.0004974071564812689
0.0005056743114366363
0.0005194529030289152
0.0005332314946211942
0.0005387429312581057
0.0005387429312581057
0.0005332314946211942
0.0005332314946211942
0.0005387429312581057
0.0005497658045319286
0.0005635443961242077
0.0005773229877164866
0.000585590142671854
0.0005883458609903097
0.0005938572976272215
0.0005938572976272215
0.000585590142671854
0.0005745672693980309
0.0005663001144426635
0.000560788677805752
0.000547010086213473
0.0005249643396658268
0.0005222086213473709
0.0005222086213473709
0.0005222086213473709
0.0005222086213473709
0.0005166971847104594
0.0005139414663920035
0.0005166971847104594
0.0005029185931181804
0.0004808728465705341
0.0004588271000228878
0.0004422927901121532
0.00042300276188296266
0.00041197988860913943
0.0003982012970168605
0.00037064411383230263
0.0003430869306477448
0.00031001831082627527
0.0002852168459601733
0.0002576596627756154
0.00022459104295414594
0.0001970338597695881
0.0001832552681773092
0.000172232394903486
0.00016396523994811866
0.00015845380331120705
0.00015845380331120705
0.00015845380331120705
0.0001556980849927513
0.0001556980849927513
0.00016396523994811866
0.00017498811322194178
0.0001832552681773092
0.00019978957808804387
0.00020805673304341124
0.00022734676127260172
0.0002741939726863501
0.000340331212329289
0.00038717842374303736
0.00038717842374303736
0.000365132677195391
0.000340331212329289
0.00031001831082627527
0.0002824611276417174
0.00026592681773098274
0.00024663678950179223
0.00025214822613870384
0.0002741939726863501
0.0002989954375524522
0.00032104118410009855
0.0003430869306477448
0.000365132677195391
0.000365132677195391
0.0003623769588769353
0.00037064411383230263
0.00037615555046921414
0.0003733998321507585
0.0003733998321507585
0.000365132677195391
0.00036788839551384685
0.000392689860379949
0.00040371273365377215
0.000392689860379949
0.00037064411383230263
0.0003485983672846564
0.0003182854657816428
0.0002989954375524522
0.00029623971923399637
0.0003072625925078196
0.00032655262073701005
0.00033206405737392166
0.0003182854657816428
0.00029072828259708476
0.0002769496910048059
0.00029072828259708476
0.0003127740291447311
0.000340331212329289
0.0003596212405584795
0.00035410980392156795
0.0003348197756923775
0.00032379690241855427
0.0003375754940108332
0.00037064411383230263
0.000392689860379949
0.0003982012970168605
0.0003816669871061258
0.00037064411383230263
0.0003816669871061258
0.0003844227054245816
0.00037615555046921414
0.000365132677195391
0.0003596212405584795
0.0003348197756923775
0.00031001831082627527
0.0002852168459601733
0.0002741939726863501
0.0002769496910048059
0.000301751155870908
0.00032655262073701005
0.0003430869306477448
0.00034584264896620056
0.00033206405737392166
0.0003293083390554659
0.0003293083390554659
0.0003127740291447311
0.00029623971923399637
0.0002934840009155406
0.0002879725642786291
0.00027970540932326175
0.0002741939726863501
0.00026592681773098274
0.0002824611276417174
0.0002686825360494386
0.00023285819790951333
0.000210812451361867
0.00020254529640649968
0.00019978957808804387
0.00019427814145113231
0.00019152242313267648
0.00019978957808804387
0.0002218353246356902
0.0002383696345464249
0.00024112535286488067
0.0002493925078202481
0.00025214822613870384
0.00023010247959105753
0.0002135681696803228
0.00024388107118333642
0.0002741939726863501
0.0002879725642786291
0.0002824611276417174
0.0002493925078202481
0.0002218353246356902
0.0002741939726863501
0.0004478042267490647
0.000717864621957732
0.0010595736934462493
0.0014591528496223384
0.0017567704280155635
0.0016906331883726243
0.001332389806973372
0.0009162763408865484
0.0006324373540856024
0.0004340256351567857
0.00026041538109407124
0.0002135681696803228
0.00025214822613870384
0.00029623971923399637
0.00032104118410009855
0.00032655262073701005
0.00032379690241855427
0.000315529747463187
0.0003182854657816428
0.00032655262073701005
0.00033206405737392166
0.000340331212329289
0.0003430869306477448
0.0003430869306477448
0.000340331212329289
0.0003375754940108332
0.0003348197756923775
0.00033206405737392166
0.000340331212329289
0.00035135408560311223
0.0003596212405584795
0.000365132677195391
0.00037615555046921414
0.000392689860379949
0.000392689860379949
0.00038717842374303736
0.00038717842374303736
0.0004009570153353164
0.00041749132524605104
0.00042024704356450677
0.0004340256351567857
0.00042024704356450677
0.0003816669871061258
0.000365132677195391
0.000365132677195391
0.0003568655222400236
0.0003375754940108332
0.0003568655222400236
0.0004092241702906837
0.0004367813534752416
0.0004670942549782553
0.0004974071564812689
0.0005166971847104594
0.0005359872129396498
0.0005414986495765614
0.0005359872129396498
0.0005304757763027383
0.0005387429312581057
0.0005359872129396498
0.0005277200579842825
0.0005332314946211942
0.0005580329594872961
0.0005938572976272215
0.0006103916075379561
0.0006076358892195001
0.000599368734264133
0.0005690558327611192
0.0005304757763027383
0.0004918957198443572
0.0004588271000228878
0.00043126991683832994
0.0003982012970168605
0.0003733998321507585
0.0003733998321507585
0.00037064411383230263
0.0003568655222400236
0.00033206405737392166
0.0003127740291447311
0.0003072625925078196
0.000315529747463187
0.000315529747463187
0.0003127740291447311
0.0002989954375524522
0.00027970540932326175
0.00026041538109407124
0.0002383696345464249
0.00023010247959105753
0.00021632388799877858
0.00020254529640649968
0.00019427814145113231
0.00017774383154039756
0.00015845380331120705
0.00013916377508201656
0.00012814090180819342
0.00013089662012664922
0.00013365233844510492
0.00011436231021591448
7.853797207598924e-05
5.649222552834297e-05
5.098078889143139e-05
5.098078889143139e-05
4.546935225451981e-05
2.6179324025329308e-05
6.8892957961388014e-06
-1.377859159228559e-06
4.133577477683014e-06
4.133577477683014e-06
-3.4446478980697995e-05
-5.9247943846800084e-05
-7.57822537575348e-05
-8.956084534981374e-05
-0.00010885087357900426
-0.00012814090180819475
-0.00014467521171892948
-0.0001612095216296642
-0.00017498811322194308
-0.00018601098649576628
-0.00018876670481422206
-0.00018601098649576628
-0.00018601098649576628
-0.00018325526817731047
-0.00017223239490348733
-0.0001336523384451063
-7.027081712062322e-05
-9.64501411459592e-06
2.6179324025329308e-05
4.546935225451981e-05
3.9957915617608246e-05
1.2400732433050376e-05
-1.240073243305171e-05
-2.6179324025330647e-05
-4.2713633936065354e-05
-5.3736507209888505e-05
-6.475938048371164e-05
-7.57822537575348e-05
-8.680512703135793e-05
-0.00010333943694209268
-0.0001198737468528274
-0.0001336523384451063
-0.000150186648355841
-0.00016947667658503157
-0.00018325526817731047
-0.00018325526817731047
-0.00016947667658503157
-0.0001364080567635621
-9.507228198672531e-05
-6.751509880216745e-05
-5.9247943846800084e-05
-4.8225070572976926e-05
-2.342360570687485e-05
1.3778591592272275e-06
4.133577477683014e-06
1.3778591592272275e-06
-6.889295796140132e-06
-1.240073243305171e-05
-9.64501411459592e-06
-1.377859159228559e-06
-4.133577477684346e-06
-6.889295796140132e-06
-1.5156450751507488e-05
-2.6179324025330647e-05
-3.169076066224221e-05
-4.2713633936065354e-05
-6.475938048371164e-05
-8.129369039444639e-05
-8.956084534981374e-05
-9.231656366826955e-05
-8.956084534981374e-05
-7.57822537575348e-05
-6.475938048371164e-05
-6.475938048371164e-05
-5.6492225528344285e-05
-1.5156450751507488e-05
-4.133577477684346e-06
-1.7912169069963278e-05
-3.169076066224221e-05
-3.995791561760957e-05
-5.3736507209888505e-05
-4.5469352254521147e-05
-3.720219729915378e-05
-4.8225070572976926e-05
-7.027081712062322e-05
-0.00010058371862363688
-0.0001226294651712832
-0.0001226294651712832
-0.0001171180285343716
-0.0001198737468528274
-0.0001198737468528274
-0.0001171180285343716
-0.0001171180285343716
-0.00012538518348973897
-0.0001364080567635621
-0.00014743093003738526
-0.00015569808499275262
-0.00015569808499275262
-0.0001584538033112084
-0.0001612095216296642
-0.00016947667658503157
-0.00018601098649576628
-0.00020254529640650095
-0.00023836963454642628
-0.00028797256427863044
-0.00032655262073701135
-0.00027419397268635144
-9.507228198672531e-05
0.00016672095826657444
0.0005029185931181804
0.000908009185931181
0.001205626764324406
0.0011201994964522765
0.0007729789883268476
0.0003623769588769353
5.649222552834297e-05
-0.00016672095826657574
-0.0002962397192339978
-0.0003127740291447324
-0.0002824611276417188
-0.00024388107118333775
-0.00023010247959105888
-0.00023285819790951464
-0.00023836963454642628
-0.00024939250782024937
-0.0002521482261387052
-0.00024939250782024937
-0.00023836963454642628
-0.00022734676127260308
-0.00023010247959105888
-0.00023836963454642628
-0.00024388107118333775
-0.00024939250782024937
-0.0002604153810940725
-0.0002686825360494398
-0.00026592681773098404
-0.00026592681773098404
-0.0002631710994125282
-0.0002604153810940725
-0.00025765966277561676
-0.0002521482261387052
-0.00024112535286488197
-0.00023010247959105888
-0.0002190796063172357
-0.00021356816968032413
-0.00020530101472495681
-0.00019703385976958942
-0.00019152242313267784
-0.00019703385976958942
-0.00019703385976958942
-0.00019427814145113364
-0.00019427814145113364
-0.00019152242313267784
-0.00018325526817731047
-0.00017223239490348733
-0.0001612095216296642
-0.00015294236667429682
-0.00014467521171892948
-0.0001336523384451063
-0.00012538518348973897
-0.0001171180285343716
-0.00010885087357900426
-0.00010058371862363688
-9.78280003051811e-05
-9.231656366826955e-05
-8.956084534981374e-05
-9.507228198672531e-05
-0.00010333943694209268
-0.00010333943694209268
-9.78280003051811e-05
-9.231656366826955e-05
-8.680512703135793e-05
-8.680512703135793e-05
-8.956084534981374e-05
-9.78280003051811e-05
-0.00010333943694209268
-0.00010885087357900426
-0.0001198737468528274
-0.00012814090180819475
-0.0001364080567635621
-0.00014191949340047367
-0.000150186648355841
-0.000150186648355841
-0.00015569808499275262
-0.00016672095826657574
-0.00017498811322194308
-0.0001777438315403989
-0.0001777438315403989
-0.00018876670481422206
-0.00020254529640650095
-0.0002190796063172357
-0.00023836963454642628
-0.0002604153810940725
-0.0002852168459601746
-0.0003127740291447324
-0.0003403312123292903
-0.00036237695887693665
-0.0003816669871061273
-0.00040095701533531767
-0.000423002761882964
-0.0004422927901121546
-0.00045055994506752175
-0.0004560713817044334
-0.00045882710002288904
-0.0004615828183413449
-0.0004615828183413449
-0.0004615828183413449
-0.00046433853665980087
-0.00046433853665980087
-0.0004698499732967123
-0.0004781171282520797
-0.0004781171282520797
-0.00047536140993362393
-0.00047260569161516804
-0.00047536140993362393
-0.00047536140993362393
-0.0004781171282520797
-0.0004781171282520797
-0.0004781171282520797
-0.00047536140993362393
-0.00048087284657053543
-0.00048638428320744705
-0.0004891400015259028
-0.0004918957198443586
-0.0004918957198443586
-0.0004891400015259028
-0.0004918957198443586
-0.000500162874799726
-0.000500162874799726
-0.0005029185931181816
-0.0005056743114366376
-0.0005029185931181816
-0.0004974071564812702
-0.0004891400015259028
-0.0004891400015259028
-0.0004974071564812702
-0.0005029185931181816
-0.0005084300297550932
-0.0005166971847104609
-0.0005277200579842838
-0.0005304757763027395
-0.0005332314946211955
-0.0005387429312581068
-0.0005414986495765627
-0.0005414986495765627
-0.0005387429312581068
-0.0005414986495765627
-0.0005414986495765627
-0.0005387429312581068
-0.0005332314946211955
-0.0005332314946211955
-0.0005387429312581068
-0.0005470100862134743
-0.00054976580453193
-0.0005525215228503861
-0.0005552772411688418
-0.0005525215228503861
-0.0005525215228503861
-0.0005552772411688418
-0.0005580329594872974
-0.0005580329594872974
-0.0005525215228503861
-0.0005442543678950186
-0.0005387429312581068
-0.0005277200579842838
-0.0005166971847104609
-0.0005166971847104609
-0.0005222086213473721
-0.0005222086213473721
-0.0005111857480735491
-0.0004918957198443586
-0.0004560713817044334
-0.00046433853665980087
-0.00048087284657053543
-0.0004918957198443586
-0.000500162874799726
-0.0005139414663920051
-0.0005194529030289164
-0.0005222086213473721
-0.0005304757763027395
-0.0005442543678950186
-0.0005580329594872974
-0.0005828344243533996
-0.00060212445258259
-0.0006103916075379574
-0.0006186587624933248
-0.0006241701991302363
-0.0006324373540856038
-0.0006324373540856038
-0.0006379487907225153
-0.0006351930724040594
-0.0006379487907225153
-0.0006489716639963384
-0.00065448310063325
-0.0006517273823147941
-0.0006462159456778825
-0.0006489716639963384
-0.0006572388189517057
-0.0006572388189517057
-0.0006572388189517057
-0.0006572388189517057
-0.0006710174105439848
-0.0007123531853208215
-0.0007426660868238351
-0.0006599945372701616
-0.00045055994506752175
-0.00016672095826657574
0.00014467521171892812
0.0005029185931181804
0.0007095974670023644
0.0005718115510795751
0.00023285819790951333
-0.0001198737468528274
-0.00037891126878767127
-0.0005745672693980323
-0.0006847960021362637
-0.0006903074387731753
-0.0006407045090409712
-0.0006076358892195017
-0.0006048801709010458
-0.0006103916075379574
-0.000615903044174869
-0.0006186587624933248
-0.0006214144808117806
-0.0006269259174486923
-0.0006324373540856038
-0.0006269259174486923
-0.0006214144808117806
-0.0006131473258564133
-0.000615903044174869
-0.0006269259174486923
-0.0006269259174486923
-0.000615903044174869
-0.0006076358892195017
-0.0006131473258564133
-0.0006131473258564133
-0.0005966130159456783
-0.0005855901426718552
-0.0005855901426718552
-0.000591101579308767
-0.0005855901426718552
-0.0005745672693980323
-0.0005635443961242091
-0.0005635443961242091
-0.0005718115510795765
-0.0005690558327611206
-0.0005552772411688418
-0.0005414986495765627
-0.0005359872129396513
-0.0005387429312581068
-0.0005387429312581068
-0.0005249643396658282
-0.0005056743114366376
-0.0004974071564812702
-0.0005056743114366376
-0.0005029185931181816
-0.0004918957198443586
-0.00047260569161516804
-0.0004615828183413449
-0.00046433853665980087
-0.0004615828183413449
-0.000447804226749066
-0.000423002761882964
-0.00040922417029068495
-0.0004147356069275966
-0.000423002761882964
-0.00041197988860914084
-0.0003954455786984061
-0.0003844227054245829
-0.0003899341420614945
-0.00040646845197222917
-0.00040646845197222917
-0.0003899341420614945
-0.0003816669871061273
-0.0003954455786984061
-0.0004257584802014197
-0.00043678135347524285
-0.0004312699168383313
-0.0004202470435645082
-0.0004257584802014197
-0.00045331566338597764
-0.0004698499732967123
-0.00045882710002288904
-0.000447804226749066
-0.00044504850843061025
-0.00047536140993362393
-0.0005029185931181816
-0.000500162874799726
-0.0004918957198443586
-0.0004918957198443586
-0.0005332314946211955
-0.0005800787060349438
-0.000591101579308767
-0.0005828344243533996
-0.0005855901426718552
-0.0006186587624933248
-0.0006737731288624405
-0.0006847960021362637
-0.0006710174105439848
-0.00065448310063325
-0.0006710174105439848
-0.0007233760585946446
-0.0007040860303654542
-0.0006792845654993521
-0.0006737731288624405
-0.0007068417486839102
-0.0007178646219577333
-0.0006985745937285427
-0.0006820402838178078
-0.0006792845654993521
-0.0007095974670023658
-0.0007288874952315562
-0.0007123531853208215
-0.0006875517204547195
-0.0006765288471808962
-0.0006985745937285427
-0.000720620340276189
-0.0007178646219577333
-0.0007040860303654542
-0.0006930631570916311
-0.0007151089036392773
-0.0007536889600976582
-0.0007536889600976582
-0.0007343989318684678
-0.000720620340276189
-0.000731643213550012
-0.0007674675516899373
-0.0007757347066453045
-0.0007536889600976582
-0.0007343989318684678
-0.0007399103685053794
-0.0007757347066453045
-0.0007895132982375835
-0.0007757347066453045
-0.0007564446784161143
-0.0007564446784161143
-0.0007840018616006722
-0.0008005361715114068
-0.0007895132982375835
-0.0007729789883268486
-0.0007674675516899373
-0.0007922690165560394
-0.0008170704814221414
-0.0008170704814221414
-0.0008005361715114068
-0.0007895132982375835
-0.0008088033264667742
-0.0008391162279697878
-0.0008391162279697878
-0.0008170704814221414
-0.0007977804531929508
-0.0008115590447852298
-0.0008418719462882435
-0.0008446276646066993
-0.0008253376363775088
-0.0008032918898298626
-0.0008088033264667742
-0.0008391162279697878
-0.0008556505378805224
-0.0008363605096513318
-0.0008115590447852298
-0.0008032918898298626
-0.0008225819180590531
-0.0008308490730144205
-0.0008115590447852298
-0.0007895132982375835
-0.0007840018616006722
-0.0008225819180590531
-0.0007867575799191276
-0.0007343989318684678
-0.0006958188754100868
-0.0007178646219577333
-0.0007674675516899373
-0.0007757347066453045
-0.0007592003967345699
-0.0007481775234607469
-0.0007592003967345699
-0.0007895132982375835
-0.0007922690165560394
-0.0007784904249637603
-0.0007757347066453045
-0.0007922690165560394
-0.0008446276646066993
-0.0008694291294728014
-0.0008556505378805224
-0.0008391162279697878
-0.0008336047913328761
-0.0008666734111543456
-0.0008859634393835361
-0.0008694291294728014
-0.0008418719462882435
-0.0008253376363775088
-0.0008584062561989784
-0.0008887191577019918
-0.000874940566109713
-0.0008473833829251552
-0.0008225819180590531
-0.0008391162279697878
-0.000874940566109713
-0.000874940566109713
-0.0008666734111543456
-0.0008694291294728014
-0.0009107649042496381
-0.0009024977492942707
-0.0007288874952315562
-0.0004422927901121546
-8.680512703135793e-05
0.0002934840009155406
0.0005497658045319286
0.0005194529030289152
0.00025214822613870384
-7.57822537575348e-05
-0.00032379690241855563
-0.0005552772411688418
-0.0007812461432822162
-0.0008225819180590531
-0.000720620340276189
-0.0006214144808117806
-0.0007592003967345699
-0.001481198596169986
-0.0020461208514534223
-0.0009961921721217675
0.0007481775234607456
0.0003596212405584795
-0.0017181903715571835
-0.0021370595559624637
-0.0011064209048599993
0.0003816669871061258
0.0006407045090409697
-0.0013571912718394756
-0.0024401885709926
-0.001483954314488442
0.0009658792706187528
-0.0008308490730144205
-0.0023464941481651028
-0.0016823660334172581
-9.507228198672531e-05
0.0010017036087586776
-0.0003430869306477461
-0.0021728838941023885
-0.0018697548790722524
-0.00040646845197222917
0.000985169298847943
0.00014743093003738393
-0.001924869245441368
-0.002035097978179599
-0.0007178646219577333
0.0008088033264667726
0.0005249643396658268
-0.0015390686808575578
-0.0020736780346379807
-0.0009686349889372096
0.0005332314946211942
0.0007371546501869223
-0.0011036651865415433
-0.0020295865415426878
-0.0011698024261844818
0.0003182854657816428
0.0009658792706187528
-0.0006489716639963384
-0.001996517921721218
-0.0013792370183871219
6.475938048371032e-05
0.0010816194399938957
-0.00017498811322194308
-0.0018973120622568097
-0.0015969387655451288
-0.00019703385976958942
0.001125710933089188
0.0003072625925078196
-0.0017209460898756396
-0.001842197695887694
-0.0005359872129396513
0.0010099707637140451
0.0007151089036392759
-0.0014701757228961628
-0.002090212344548715
-0.0009245434958419172
0.0007619561150530243
0.0010265050736247801
-0.0011091766231784547
-0.0022693340352483407
-0.00130207690547036
0.0004505599450675205
0.0012607411306935217
-0.0006379487907225153
-0.0023382269932097363
-0.0016823660334172581
4.82250705729756e-05
0.0013130997787441814
-0.0001612095216296642
-0.002316181246662089
-0.0020709223163195246
-0.0004285141985198755
0.0011946038910505827
0.0002879725642786291
-0.0021618610208285647
-0.0009024977492942707
0.0009658792706187528
0.0007151089036392759
-0.0018256633859769598
-0.002646867444876784
-0.0013296340886549175
0.000687551720454718
0.0011119323414969095
-0.0013268783703364617
-0.0027874090791180288
-0.00174023611810483
0.00032655262073701005
0.0013875041733424878
-0.0007371546501869236
-0.0028094548256656754
-0.0021425709925993745
-0.00010058371862363688
0.0015280458075837332
-6.200366216525588e-05
-0.002671668909742886
-0.0025201044022278175
-0.0005855901426718552
0.0014756871595330732
0.0005938572976272215
-0.002360272739757382
-0.002848034882124056
-0.0011091766231784547
0.0012331839475089635
0.0011532681162737465
-0.0018890449073014426
-0.0030932938124666213
-0.0016217402304112315
0.0008473833829251538
0.0015748930189974813
-0.0012552296940566115
-0.0031869882352941175
-0.0020984794995040825
0.00037064411383230263
0.0018256633859769582
-0.0005359872129396513
-0.0031456524605172806
-0.0025614401770046548
-0.00019152242313267784
0.0018697548790722507
0.0002190796063172344
-0.00291141640344854
-0.002938973586633097
-0.0007674675516899373
0.0017071674982833593
0.000908009185931181
-0.002484280064087893
-0.0032310797283894104
-0.0013351455252918294
0.0013737255817502093
0.0014811985961699847
-0.0018945563439383547
-0.003426735728999772
-0.0018862891889829868
0.0008997420309758136
0.001886289188982985
-0.001161535271229115
-0.003459804348821241
-0.002385074204623484
0.0003568655222400236
0.0021315481193255503
-0.00030175115587090934
-0.0027901647974364844
-0.00023285819790951464
0.0021343038376440064
0.0005166971847104594
-0.0029169278400854514
-0.003085026657511254
-0.0007647118333714817
0.001999273640039672
0.0012993211871519031
-0.002382318486305028
-0.0033661099259937443
-0.001409549919890136
0.0015528472724498353
0.0018394419775692368
-0.0017209460898756396
-0.0035231858701457244
-0.002004785076676585
0.000960367833981841
0.0021315481193255503
-0.0010237493553063252
-0.0035810559548332963
-0.0025641958953231104
0.0003072625925078196
0.0022583111619745165
-0.0002190796063172357
-0.0034074457007705803
-0.003005110826276036
-0.0003485983672846577
0.002192173922331578
0.0005911015793087656
-0.0030464466010528732
-0.0033550870527199205
-0.0009824135805294888
0.0019524264286259246
0.0013158554970626377
-0.002517348683909362
-0.003649948912794689
-0.00168787747005417
0.0014178170748455018
0.0018669991607537949
-0.0016437859769588773
-0.0033109955596246285
-0.001404038483253224
0.0021480824292362853
0.0037326204623483626
0.0004009570153353164
-0.002646867444876784
-0.001988250766765851
0.0007757347066453035
0.0026826917830167084
-3.720219729915378e-05
-0.003454292912184329
-0.0030519580376897845
-0.00027694969100480727
0.0024098756694895846
0.0007702232700083917
-0.0030547137560082405
-0.0034322471656366834
-0.0009851692988479444
0.00207918947127489
0.0014784428778515288
-0.002478768627450981
-0.0036637275043869687
-0.0016134730754558636
0.001607961638818951
-0.001742991836423286
-0.0037629333638513783
-0.0021783953307393
0.001048550820172426
0.0024346771343556873
-0.0008832077210650803
-0.003710574715800717
-0.0026909589379720765
0.000392689860379949
0.002583485923552299
1.7912169069961946e-05
-0.0034515371938658736
-0.0030905380941481657
-0.0002631710994125282
0.002522860120546272
0.0009107649042496368
-0.003005110826276036
-0.0034129571374074924
-0.0009135206225680943
0.0022638225986114278
0.0017154346532387268
-0.0023382269932097363
-0.0036031017013809412
-0.0015252900892652787
0.001795350484473944
0.0023134255283436323
-0.001547335835812925
-0.003660971786068513
-0.0020681665980010686
0.0012276725108720525
0.0027074932478828094
-0.0006351930724040594
-0.003556254489967193
-0.002542150148775464
0.000585590142671854
0.002867324910353245
0.00031001831082627527
-0.0032669040665293365
-0.002944485023270009
-9.231656366826955e-05
0.0027653633325703812
0.0011863367360952157
-0.0028094548256656754
-0.003280682658121615
-0.0007867575799191276
0.002418142824444952
0.001905579217212176
-0.0022169753871976814
-0.003542475898374915
-0.0014591528496223395
0.0019028234988937198
0.0024594785992217887
-0.0014481299763485164
-0.0036389260395208673
-0.0020406094148165107
0.0012882983138780798
0.002801187670710307
-0.000577322987716488
-0.0035975902647440304
-0.0026165545433737697
0.0005442543678950173
0.002853546318760966
0.0002576596627756154
-0.003418468574044404
-0.0031318738689250026
0.002652378881513694
0.0010595736934462493
-0.003024400854505227
-0.0035314530251010913
-0.000979657862211033
0.0022968912184328978
0.001795350484473944
-0.0023960970778973073
-0.003782223392080568
-0.0016465416952773332
0.0018091290760662239
0.0023988527962157612
-0.0015693815823605713
-0.0038428491950865955
-0.002236265415426872
0.0011835810177767598
0.0027653633325703812
-0.0006599945372701616
-0.0037436433356221877
-0.0027460733043411924
0.0005056743114366363
0.0029003935301747147
0.00029072828259708476
-0.0034487814755474184
-0.003170453925383384
-0.0002080567330434125
0.0027901647974364835
0.0011946038910505827
-0.002963775051499199
-0.0034928729686427105
-0.0008942305943389032
0.002462234317540245
0.001971716456855115
-0.00228311262684062
-0.0037050632791638055
-0.0015748930189974828
0.0019276249637598223
0.002547661585412374
-0.001481198596169986
-0.003784979110399024
-0.0021811510490577562
0.0012634968490119777
0.002878347783627069
-0.0005718115510795765
-0.0036802618142977037
-0.0026826917830167084
0.0005635443961242077
0.0029885765163653005
0.000365132677195391
-0.0034074457007705803
-0.0031346295872434577
-0.00018325526817731047
0.0028315005722133204
0.0012607411306935217
-0.002900393530174716
-0.0034322471656366834
-0.0008639176928358897
0.0024705014724956116
0.00200754079499504
-0.002239021133745327
-0.0036471931944762346
-0.0015225343709468226
0.0019221135271229105
0.0025586844586861974
-0.0014067942015716798
-0.003671994659342337
0.001321366933699549
0.0029169278400854497
-0.00046433853665980087
-0.0035314530251010913
-0.0025256158388647287
0.0006572388189517045
0.003046446601052872
0.0005277200579842825
-0.0031511638971541927
-0.002867324910353247
-1.240073243305171e-05
0.0028755920653086124
0.0013268783703364606
-0.002735050431067369
-0.003228324010070955
-0.000720620340276189
0.0024705014724956116
0.001993762203402761
-0.0021398152742809194
-0.0034983844052796217
-0.0014233285114824145
0.0018835334706645297
0.0024594785992217887
-0.0013957713282978569
-0.003589323109788663
-0.0019992736400396734
0.0012524739757381546
0.0027488290226596467
-0.0005359872129396513
-0.003484605813687343
-0.0024897915007248044
0.0005773229877164866
0.002820477698939497
0.00034584264896620056
-0.00321178970016022
-0.0028976378118562604
-0.00010333943694209268
0.0026578903181506057
0.0011091766231784534
-0.0028563020370794235
-0.0033027284046692608
-0.0007151089036392773
0.0025972645151445786
0.002442944289311054
-0.0011339780880445568
-0.0020075407949950415
0.00011711802853437029
0.0030905380941481644
0.003242102601663233
-0.0008143147631036856
-0.0031649424887464717
-0.0017981062027924016
0.001271764003967345
0.0027185161211566327
-0.000447804226749066
-0.0033027284046692608
-0.0023382269932097363
0.0006324373540856024
0.002795676234073395
0.00036788839551384685
-0.003085026657511254
-0.0027681190508888377
-3.720219729915378e-05
0.002663401754787517
0.001180825299458304
-0.0030740037842374307
-0.0006737731288624405
0.0023520055848020127
0.0018752663157091622
-0.002026830823224232
-0.003269659784847792
-0.0012579854123750671
0.0018945563439383528
0.002418142824444952
-0.0012607411306935232
-0.0033247741512169074
-0.0017925947661554897
0.001318611215381093
0.0027378061493858238
-0.0004285141985198755
-0.0032448583199816894
-0.0022583111619745183
0.0006958188754100854
0.002845279163805599
0.0004533156633859763
-0.00294999645990692
-0.002624821698329137
7.30265354390777e-05
0.002746073304341191
0.0012772754406042562
-0.0025035700923170825
-0.0029224392767223622
-0.0005414986495765627
0.0024484557259479662
0.001988250766765849
-0.001875266315709164
-0.003098805249103533
-0.0011009094682230872
0.002024075104905775
0.002547661585412374
-0.0011064209048599993
-0.0031511638971541927
-0.0016189845120927755
0.0014729314412146172
0.0028893706569008922
-0.0002631710994125282
-0.003082270939192797
-0.0021039909361409937
0.0008418719462882423
0.002985820798046844
0.0005718115510795751
-0.002864569192034791
-0.0025393944304570077
0.00016120952162966288
0.002839767727168688
0.0013516798352025624
-0.002470501472495613
-0.0028976378118562604
-0.0005029185931181816
0.0025090815289539933
0.0020433651331349654
-0.0018807777523460753
-0.0031346295872434577
-0.0011284666514076451
0.00200754079499504
0.0025201044022278166
-0.001208382482642863
-0.0033027284046692608
-0.0017760604562447552
0.001321366933699549
-0.00047260569161516804
-0.0033302855878538187
-0.002352005584802014
0.000599368734264133
0.0027488290226596467
0.000315529747463187
-0.0031318738689250026
-0.0028011876707103077
-9.231656366826955e-05
0.002586241641870755
0.0011064209048599978
-0.002710248966201267
-0.0031236067139696344
-0.000731643213550012
0.0022638225986114278
0.0017925947661554887
-0.0021095023727779054
-0.003344064179446098
-0.0013406569619287408
0.0017815718928816655
0.0023106698100251763
-0.0013682141451132987
-0.003426735728999772
-0.001891800625619898
0.0011835810177767598
0.0025889973601892105
-0.0005635443961242091
-0.0033688656443122003
-0.002385074204623484
0.0005277200579842825
0.0026413560082398715
0.00026041538109407124
-0.0031208509956511797
-0.0027874090791180288
-0.0001336523384451063
0.0024925472190432583
0.001037527946898603
-0.0027047375295643555
-0.003096049530785077
-0.0007702232700083929
0.002137059555962462
0.0016740988784618896
-0.0021343038376440077
-0.0033247741512169074
-0.0013737255817502102
0.0016520531319142435
0.002153593865873197
-0.0014288399481193262
-0.0034129571374074924
-0.0019110906538490886
0.0010678408484016168
0.0024346771343556873
-0.0006324373540856038
-0.003352331334401465
-0.00238782992294194
0.0004422927901121532
0.0025008143739986255
0.00017498811322194178
-0.0031373853055619142
-0.0027984319523918525
-0.00020254529640650095
0.0023602727397573804
0.0009438335240711064
-0.002715760402838179
-0.003085026657511254
-0.0007784904249637603
0.0016437859769588762
-0.0021039909361409937
-0.003272415503166247
-0.0013268783703364617
0.0016906331883726243
0.0022087082322423124
-0.0013186112153810948
-0.0032999726863508043
-0.0018339305409323266
0.0011119323414969095
0.0024484557259479662
-0.000591101579308767
-0.003277926939803159
-0.0023244484016174565
0.000469849973296711
0.0024870357824063475
0.00016396523994811866
-0.0031208509956511797
-0.0028011876707103077
-0.00023285819790951464
0.0022968912184328978
0.0008804520027466232
-0.0027433175860227363
-0.0031291181506065465
-0.0008584062561989784
0.0019799836118104823
0.0015252900892652771
-0.0021783953307393
-0.0033468198977645537
-0.001442618539711605
0.001530801525902189
0.0020268308232242304
-0.0014756871595330745
-0.003426735728999772
-0.0019579378652628365
0.000971390707255664
0.0022858683451590744
-0.0007619561150530257
-0.0034129571374074924
-0.002307914091706722
0.0007343989318684667
0.0030850266575112523
0.0011339780880445555
-0.0018146405127031364
-0.001483954314488442
0.0008115590447852286
0.00300235510795758
0.001324122652018005
-0.00251183724727245
-0.0030767595025558868
-0.0008804520027466246
0.002015807949950408
0.0016327631036850527
-0.0020819451895933475
-0.003277926939803159
-0.0013957713282978569
0.0015721373006790259
0.0021012352178225373
-0.0014067942015716798
-0.0033909113908598457
-0.0019331364003967355
0.0010127264820325008
0.0024016085145342177
-0.0005966130159456783
-0.0033054841229877173
0.0004092241702906837
0.0024897915007248026
0.00023010247959105753
-0.0030602251926451518
-0.002762607614251928
-0.0002108124513618684
0.0023740513313496602
0.0010154822003509568
-0.002641356008239873
-0.003068492347600519
-0.0008088033264667742
0.002073678034637979
0.0016989003433279916
-0.002032342259861144
-0.0032503697566186006
-0.0013571912718394756
0.0016327631036850527
0.00221697538719768
-0.0012855425955596252
-0.0033054841229877173
-0.0018477091325246056
0.0011091766231784534
0.002539394430457007
-0.0004422927901121546
-0.003192499671931029
-0.0022720897535667968
0.0005249643396658268
0.0026358445716029603
0.00041473560692759526
-0.002905904966811628
-0.002633088853284505
-7.027081712062322e-05
0.002528371557183184
0.0012138939192797731
-0.002442944289311056
-0.0028976378118562604
-0.0006517273823147941
0.0022279982604715034
0.0018890449073014407
-0.0018311748226138708
-0.0030877823758297092
-0.0012166496375982305
0.0017650375829709308
0.0023602727397573804
-0.0011257109330891897
-0.003178721080338751
-0.001765037582970932
0.0011615352712291134
0.0025972645151445786
-0.0003568655222400251
-0.0031291181506065465
-0.0022500440070191505
0.0005359872129396498
0.0026468674448767828
0.0004422927901121532
-0.0028921263752193483
-0.002663401754787518
-0.0001364080567635621
0.00244570000762951
0.0011422452429999228
-0.0025283715571831848
-0.003032668009460594
-0.0008225819180590531
0.0020433651331349654
0.0017071674982833593
-0.0033027284046692608
-0.001453641412985428
0.0015197786526283655
0.002137059555962462
-0.0013213669336995504
-0.0033853999542229354
-0.001991006485084307
0.0009465892423895617
0.0024071199511711294
-0.0005194529030289164
-0.0032999726863508043
-0.0024512114442664236
0.00032379690241855427
0.0024594785992217887
0.00029072828259708476
-0.0030464466010528732
-0.0028370120088502333
-0.00030726259250782084
0.0023161812466620884
0.001048550820172426
-0.002613798825055314
-0.0031373853055619142
-0.0009162763408865498
0.0019854950484473935
0.0017044117799649037
-0.001996517921721218
-0.0033165069962615397
-0.0014922214694438093
0.0015032443427176307
0.0021563495841916518
-0.0012965654688334484
-0.0033853999542229354
-0.0020075407949950415
0.0009355663691157388
0.0024264099794003196
-0.0004891400015259028
-0.003294461249713894
-0.0024760129091325246
0.00029623971923399637
0.0024567228809033326
0.0002989954375524522
-0.0030547137560082405
-0.002867324910353247
-0.0003430869306477461
0.0022941355001144417
0.0010540622568093376
-0.0026220659800106814
-0.00315943105210956
-0.0009548563973449309
0.00195518214694438
0.0016989003433279916
-0.0020102965133134967
-0.003341308461127642
-0.0015225343709468226
0.0014756871595330732
0.0021591053025101082
-0.0012855425955596252
-0.0033936671091783026
-0.0020295865415426878
0.0009052534676127252
0.002418142824444952
-0.0004781171282520797
-0.003291705531395438
-0.002470501472495613
0.0002989954375524522
0.0024870357824063475
-0.0029720422064545672
-0.0027984319523918525
-0.00030175115587090934
0.002327204119935911
0.0011394895246814672
-0.0024897915007248044
-0.0030106222629129476
-0.0008170704814221414
0.0020654108796826116
0.0018118847943846788
-0.0018862891889829868
-0.003225568291752499
-0.0014288399481193262
0.0015445801174944675
0.0022362654154268703
-0.0011890924544136726
-0.0033165069962615397
-0.0019827393301289392
0.0009107649042496368
0.0024071199511711294
-0.0004698499732967123
-0.00328343837644007
-0.002470501472495613
0.000263171099412527
0.0024208985427634083
0.00032104118410009855
-0.0030188894178683158
-0.0028507906004425123
-0.0003651326771953924
0.0022472882887006936
0.0010595736934462493
-0.0025752187685969324
-0.0031236067139696344
-0.0009493449607080192
0.0019166020904859992
0.0016906331883726243
-0.0019717164568551163
-0.003322018432898452
-0.0015611144274052038
0.001376481300068665
0.0021811510490577545
-0.0009824135805294888
-0.0027929205157549404
-0.0011064209048599993
0.0021508381475547405
0.003837337758449683
0.0008694291294728002
-0.0022638225986114295
-0.001787083329518578
0.000717864621957732
0.0026606460364690604
0.00042851419851987416
-0.002900393530174716
-0.0027212718394750905
-0.0002521482261387052
0.0023299598382543678
0.0011505123979552907
-0.0024649900358587017
-0.0030354237277790495
-0.0008914748760204477
0.0019441592736705567
0.0017181903715571825
-0.0018945563439383547
-0.003214545418478676
-0.0014371071030746935
0.002178395330739299
-0.001156023834592203
-0.0032310797283894104
-0.0019110906538490886
0.000949344960708018
0.00244570000762951
-0.0003568655222400251
-0.0031125838406958115
-0.0023244484016174565
0.0003623769588769353
0.0024870357824063475
0.0004505599450675205
-0.0028177219806210427
-0.002663401754787518
-0.00023285819790951464
0.0023409827115281902
0.0011946038910505827
-0.0023575170214389257
-0.002900393530174716
-0.0007840018616006722
0.0020268308232242304
0.0018173962310215907
-0.001742991836423286
-0.0030354237277790495
-0.0012882983138780809
0.0015914273289082165
0.002277601190203707
-0.0010099707637140464
-0.0030381794460975055
-0.001726457526512551
0.0010705965667200726
0.002536638712138551
-0.0002080567330434125
-0.002889370656900893
-0.002092968062867171
0.0005277200579842825
0.0025889973601892105
0.0005800787060349425
-0.002605531670099947
-0.002429165697718776
-6.200366216525588e-05
0.002412631387808041
0.001271764003967345
-0.002186662485694668
-0.002685447501335165
-0.0006269259174486923
0.0020654108796826116
0.0018256633859769582
-0.0016520531319142448
-0.0028921263752193483
-0.0011835810177767614
0.0015831601739528486
0.0022114639505607684
-0.0009961921721217675
-0.0029527521782253766
-0.0016603202868696126
0.0010430393835355147
0.0024208985427634083
-0.0002824611276417188
-0.002900393530174716
-0.0021150138094148166
0.00041749132524605104
0.0023768070496681154
0.00037891126878767
-0.0027295389944304574
-0.00023836963454642628
0.002139815274280918
0.0009906807354848547
-0.0023795627679865728
-0.002842523445487144
-0.0008143147631036856
0.0017925947661554887
0.0015335572442206446
-0.0018477091325246056
-0.0030216451361867705
-0.0013296340886549175
0.0013571912718394743
0.0019441592736705567
-0.0011890924544136726
-0.0030767595025558868
-0.0017925947661554897
0.0008446276646066979
0.0021756396124208432
-0.0004615828183413449
-0.0029858207980468453
-0.0021921739223315783
0.000301751155870908
0.0022279982604715034
0.00027970540932326175
-0.0027405618677042807
-0.0025283715571831848
-0.00025765966277561676
0.002076433752956435
0.0009465892423895617
-0.0023464941481651028
-0.0027874090791180288
-0.0008005361715114068
0.001759526146334019
0.0015060000610360867
-0.0018091290760662245
-0.0029555078965438322
-0.0012993211871519042
0.001337901243610284
0.0019110906538490876
-0.001164290989547571
-0.003007866544594492
-0.0017567704280155648
0.0008198261997405958
0.002137059555962462
-0.000447804226749066
-0.0029362178683146416
-0.0021646167391470208
0.00027143825436789435
0.0021673724574654755
0.00026592681773098274
-0.0027047375295643555
-0.0024925472190432604
-0.0002686825360494398
0.002021319386587319
0.0009328106507972832
-0.002310669810025177
-0.0027460733043411924
-0.0007867575799191276
0.0017319689631494616
0.0014867100328068963
-0.0017760604562447552
-0.002908660685130084
-0.0012827868772411696
0.0012965654688334468
0.0018697548790722507
-0.0011450009613183801
-0.001726457526512551
0.0008143147631036844
0.00211225809109636
-0.0004202470435645082
-0.0028590577553978796
-0.0021012352178225377
0.0002852168459601733
0.002139815274280918
0.000301751155870908
-0.0025697073319600225
-0.0023382269932097363
-0.00015569808499275262
0.002073678034637979
0.0009796578622110316
-0.0022114639505607697
-0.002644111726558328
-0.0007233760585946446
0.0017457475547417404
0.0014977329060807197
-0.0017209460898756396
-0.0028507906004425123
-0.001266252567330435
0.0012662525673304335
0.0018036176394293122
-0.0011808252994583053
-0.0029692864881361108
-0.001748503273060197
0.0007481775234607456
0.002004785076676584
-0.000500162874799726
-0.002900393530174716
-0.0021425709925993745
0.0002190796063172344
0.0020433651331349654
0.00019427814145113231
-0.002677180346379797
-0.0024649900358587017
-0.00030726259250782084
0.0019028234988937198
0.0008308490730144192
-0.002321692683299001
-0.0027763862058442054
-0.0009300549324788287
0.0015280458075837332
0.0014288399481193247
-0.0015060000610360883
-0.0022720897535667968
-0.00027694969100480727
0.002624821698329136
0.0032503697566185997
6.751509880216611e-05
-0.0020571437247272452
-0.0011312223697261012
0.0011394895246814672
0.0021811510490577545
-0.00040646845197222917
-0.0027763862058442054
-0.0020213193865873205
0.0003072625925078196
0.002103990936140992
0.00027143825436789435
-0.0025779744869153885
-0.002374051331349661
-0.0002466367895017936
0.0019441592736705567
-0.0021976853589684904
-0.0026027759517814916
-0.0007288874952315562
0.001671343160143434
0.0014288399481193247
-0.0016933889066910817
-0.0027653633325703825
-0.0012028710460059518
0.0012800311589227123
0.0018284191042954136
-0.0010788637216754414
-0.0028204776989394983
-0.0016189845120927755
0.0008225819180590517
0.0020681665980010673
-0.00037339983215075977
-0.0027185161211566345
-0.00196896073853666
0.0003430869306477448
0.002145326710917829
0.0003485983672846564
-0.002473257190814069
-0.0022638225986114295
-0.000150186648355841
0.002032342259861142
0.001007215045395589
-0.002076433752956436
-0.002484280064087893
-0.0006241701991302363
0.0017677933012893864
0.0015556029907682909
-0.001547335835812925
-0.002624821698329137
-0.0010650851300831622
0.0013957713282978553
0.0019524264286259246
-0.0009162763408865498
-0.0026386002899214172
-0.0014508856946669724
0.0009548563973449294
0.0021839067673762105
-0.00023010247959105888
-0.002553173022049287
-0.0018091290760662245
0.0004615828183413437
0.00221697538719768
0.0004367813534752416
-0.0023409827115281924
-0.0021343038376440077
-6.475938048371164e-05
0.0020571437247272444
0.0010320165102616916
-0.0020130522316319528
-0.0024208985427634083
-0.000591101579308767
0.0017540147096971076
0.0015280458075837332
-0.0015363129625391013
-0.002591753078507668
-0.0010540622568093393
0.0013654584267948416
0.001891800625619897
-0.0009548563973449309
-0.002674424628061342
-0.0015170229343099112
0.0020268308232242304
-0.00037891126878767127
-0.0026909589379720765
-0.001979983611810484
0.0002549039444571596
0.0019799836118104823
0.0002135681696803228
-0.0025256158388647287
-0.0023244484016174565
-0.00027419397268635144
0.001822907667658502
0.0008032918898298613
-0.002186662485694668
-0.0025724630502784777
-0.0007647118333714817
0.0015611144274052025
0.0013268783703364606
-0.0016989003433279934
-0.002735050431067369
-0.0012111382009613188
0.0011918481727321271
0.0017126789349202708
-0.0011229552147707339
-0.002812210543984131
-0.00163551882200351
0.0007261317769130989
0.0019276249637598223
-0.00046709425497825643
-0.0027598518959334717
-0.002026830823224232
0.00022734676127260172
0.001968960738536659
0.00019427814145113231
-0.0025697073319600225
-0.002360272739757382
-0.0002962397192339978
0.001833930540932325
0.0008143147631036844
-0.0022087082322423137
-0.0026082873884184033
-0.0007922690165560394
0.0015473358358129234
0.001321366933699549
-0.0017319689631494627
-0.002784653360799573
-0.0012552296940566115
0.0011615352712291134
0.0016989003433279916
-0.0011339780880445568
-0.0028342562905317777
-0.0016740988784618909
0.0006930631570916297
0.0018945563439383528
-0.0004891400015259028
-0.0027681190508888377
-0.002035097978179599
0.0001970338597695881
0.0019193578088044546
0.0001694766765850302
-0.0025586844586861987
-0.0023464941481651028
-0.0003045068741893651
0.0017898390478370328
0.0007729789883268476
-0.0022142196688792254
-0.0025945087968261243
0.0015115114976729984
0.0012827868772411677
-0.0017292132448310067
-0.0027515847409781036
-0.0012276725108720536
0.0011450009613183788
0.001671343160143434
-0.0011146880598153664
-0.0027763862058442054
-0.0016079616388189524
0.0007233760585946433
0.001905579217212176
-0.00043953707179369863
-0.0026661574731059743
-0.001891800625619898
0.0003348197756923775
0.0020295865415426865
0.00027970540932326175
-0.002445700007629512
-0.0022335096971084155
-0.0002108124513618684
0.0018614877241168832
0.000858406256198977
-0.002117769527733273
-0.0025035700923170825
-0.0007261317769131007
0.0015390686808575565
0.0012993211871519031
-0.0017181903715571835
-0.00275434045929656
-0.0012386953841458767
0.001128466651407644
0.001660320286869611
-0.0011394895246814685
-0.0028232334172579544
-0.0016603202868696126
0.000676528847180895
0.0018752663157091622
-0.00048362856488899143
-0.002762607614251928
-0.002035097978179599
0.0001832552681773092
0.0019138463721675438
0.00017774383154039756
-0.0025641958953231104
-0.002385074204623484
-0.0003954455786984061
0.001657564568551155
0.0007151089036392759
-0.0021150138094148166
-0.0022720897535667968
-0.0001391637750820179
0.002594508796826122
0.0027212718394750883
-0.0003403312123292903
-0.0016933889066910817
-0.0005414986495765627
0.0015748930189974813
0.001900067780575264
-0.0010540622568093393
-0.0028066991073472194
-0.0016217402304112315
0.000753688960097657
0.001960693583581292
-0.0004147356069275966
-0.0020075407949950415
0.00021632388799877858
0.0019496707103074684
0.00022734676127260172
-0.00251183724727245
-0.0023189369649805444
-0.00027419397268635144
0.0018256633859769582
0.0008391162279697863
-0.0021425709925993745
-0.002542150148775464
-0.0007343989318684678
0.0015776487373159373
0.0013737255817502093
-0.001632763103685054
-0.002685447501335165
-0.0011725581445029378
0.0012111382009613175
0.0017512589913786518
-0.001026505073624781
-0.0027047375295643555
-0.0015556029907682917
0.0007784904249637591
0.001968960738536659
-0.0003596212405584808
-0.002605531670099947
-0.0018807777523460753
0.00032379690241855427
0.0020378536964980537
0.0003293083390554659
-0.002360272739757382
-0.0021508381475547427
-0.0001336523384451063
0.0019441592736705567
0.00097414642557412
-0.0019717164568551163
-0.0023547613031204705
-0.0005745672693980323
0.0017181903715571825
0.0015197786526283655
-0.0014563971313038841
-0.0024815243457694367
-0.0009851692988479444
0.0013682141451132974
0.001905579217212176
-0.0008473833829251552
-0.0025035700923170825
-0.0013571912718394756
0.000949344960708018
0.0021287924010070947
-0.00019427814145113364
-0.002426409979400321
-0.0017071674982833604
0.0004670942549782553
0.0021480824292362853
0.00043126991683832994
-0.002252799725337606
-0.0020406094148165107
-4.5469352254521147e-05
0.002002029358358128
0.0010237493553063243
-0.0019055792172121765
-0.0022748454718852524
-0.0004974071564812702
0.0017540147096971076
-0.0014398628213931491
-0.0024677457541771577
-0.0009934364538033119
0.0013130997787441814
0.0018146405127031347
-0.0009576121156633864
-0.002627577416647594
-0.0014977329060807208
0.0007647118333714802
0.0019221135271229105
-0.00040371273365377345
-0.0026496231631952397
-0.0019303806820782797
0.0002383696345464249
0.0019166020904859992
0.00021632388799877858
-0.002473257190814069
-0.0022583111619745183
-0.0002549039444571609
0.0017898390478370328
0.0008143147631036844
-0.002117769527733273
-0.0024925472190432604
-0.0007233760585946446
0.0015225343709468217
0.0013130997787441814
-0.00163551882200351
-0.002644111726558328
-0.0011505123979552916
0.0011505123979552907
0.0016630760051880667
-0.0010595736934462504
-0.0026964703746089882
-0.001550091554131381
0.000701330312046997
0.0018477091325246043
-0.00043953707179369863
-0.002633088853284505
-0.0018973120622568097
0.00024112535286488067
0.0018752663157091622
0.00018876670481422076
-0.002431921416037232
-0.0022087082322423137
-0.00024388107118333775
0.001748503273060196
0.0007757347066453035
-0.002095723781185626
-0.0024512114442664236
-0.0007013303120469984
0.0014867100328068963
0.001246962539101243
-0.001649297413595789
-0.0026165545433737697
-0.0011367338063630126
0.0011201994964522765
0.0015996944838635836
-0.0010898865949492643
-0.0026826917830167084
-0.0015418243991760134
0.0006903074387731741
0.001800861921110856
-0.0004698499732967123
-0.0026193102616922257
-0.0018890449073014426
0.0018477091325246043
0.00016120952162966288
-0.0024346771343556877
-0.0022004410772869464
-0.0002466367895017936
0.0017237018081940941
0.0007509332417792012
-0.002090212344548715
-0.0024181428244449544
-0.000668261692225529
0.001514267215991454
0.001285542595559624
-0.0015996944838635846
-0.0025614401770046548
-0.0010816194399938968
0.0012001153276874944
0.0017126789349202708
-0.0009548563973449309
-0.002547661585412376
-0.0014205727931639587
0.0007922690165560381
0.001897312062256809
-0.0003816669871061273
-0.0025449058670939193
-0.0018118847943846804
0.00031001831082627527
0.0019193578088044546
0.00022459104295414594
-0.002401608514534219
-0.0021894182040131235
-0.00024388107118333775
0.0017292132448310056
0.0007564446784161128
-0.0021012352178225377
-0.0024539671625848788
-0.0007151089036392773
0.0014674200045777057
0.0012414511024643313
-0.0016382745403219659
-0.002613798825055314
-0.001147756679636836
0.0011009094682230861
0.0015914273289082165
-0.0010733522850385297
-0.0026578903181506065
-0.0015252900892652787
0.000676528847180895
0.0017650375829709308
-0.0005277200579842838
-0.0026964703746089882
-0.0019055792172121765
0.00037615555046921414
0.0022335096971084142
0.0008859634393835348
-0.0013075883421072713
-0.0008032918898298626
0.001048550820172426
0.002693714656290531
0.001376481300068665
-0.001679610315098803
-0.0022087082322423137
-0.0006351930724040594
0.0014619085679407943
0.0012607411306935217
-0.001544580117494469
-0.0024815243457694367
0.0011394895246814672
0.0015914273289082165
-0.0010375279468986046
-0.0025724630502784777
-0.0014453742580300608
0.0007233760585946433
0.0017898390478370328
-0.0004285141985198755
-0.0025063258106355385
-0.0017705490196078433
0.0002934840009155406
0.001855976287479972
0.0002135681696803228
-0.002310669810025177
-0.0020571437247272452
-0.00014743093003738526
0.0017705490196078426
0.000806047608148317
-0.0019717164568551163
-0.0022776011902037084
-0.0005690558327611206
0.001558358709086747
0.001324122652018005
-0.0015032443427176322
-0.002426409979400321
-0.0009686349889372096
0.0012414511024643313
0.0017154346532387268
-0.0009245434958419172
-0.002473257190814069
-0.0013379012436102852
0.0008528948195620654
0.001957937865262836
-0.00027419397268635144
-0.002398852796215763
-0.0016630760051880677
0.0004340256351567857
0.0020433651331349654
0.0003954455786984048
-0.0021756396124208446
-0.0019386478370336465
-1.377859159228559e-06
0.00195518214694438
0.0010017036087586776
-0.0018229076676585035
-0.0021535938658731974
-0.0004312699168383313
0.001720946089875638
0.0015087557793545424
-0.0013406569619287408
-0.0022941355001144434
-0.0008391162279697878
0.0013709698634317533
0.0018477091325246043
-0.000795024734874495
-0.0023795627679865728
-0.0012579854123750671
0.0009190320592050041
0.002004785076676584
-0.00021632388799877996
-0.0023409827115281924
-0.0016217402304112315
0.0004450485084306089
0.002021319386587319
0.00038993414206149314
-0.001924869245441368
-2.6179324025330647e-05
0.0018780220340276189
0.0009135206225680924
-0.0018807777523460753
-0.0022169753871976814
-0.0005359872129396513
0.001558358709086747
0.0013103440604257258
-0.0015170229343099112
-0.00245947859922179
-0.0010320165102616929
0.001136733806363011
0.0015859158922713046
-0.0010237493553063252
-0.0025614401770046548
-0.0014453742580300608
0.0007040860303654528
0.0017760604562447539
-0.0004202470435645082
-0.002509081528953994
-0.0017843276112001222
0.000263171099412527
0.0018201519493400466
0.00018876670481422076
-0.0023244484016174565
-0.0020819451895933475
-0.00018601098649576628
0.0017126789349202708
0.0007592003967345686
-0.00200202935835813
-0.0023272041199359126
-0.0006324373540856038
0.0014729314412146172
0.0012414511024643313
-0.0015611144274052038
-0.0024925472190432604
-0.0010540622568093393
0.0011312223697260999
0.0015941830472266717
-0.0010182379186694142
-0.002566951613641566
-0.0014481299763485164
0.000717864621957732
0.0018036176394293122
-0.0004147356069275966
-0.0025283715571831848
-0.0018091290760662245
0.0002549039444571596
0.001833930540932325
0.00019427814145113231
-0.0023547613031204705
-0.0021343038376440077
-0.0002218353246356915
0.0017237018081940941
0.0007784904249637591
-0.002024075104905776
-0.002368539894712749
-0.0006737731288624405
0.0014729314412146172
0.0012552296940566102
-0.0015831601739528503
-0.002542150148775464
-0.0011036651865415433
0.0011119323414969095
-0.0010292607919432368
-0.0026027759517814916
-0.0014867100328068976
0.0006903074387731741
0.0017981062027924003
-0.0004202470435645082
-0.0025393944304570077
-0.0018229076676585035
0.0002383696345464249
0.001822907667658502
0.00019427814145113231
-0.0023409827115281924
-0.0021012352178225377
-0.00019152242313267784
0.0017347246814679172
0.0008032918898298613
-0.001974472175173572
-0.002299646936751355
-0.0006048801709010458
0.0015115114976729984
0.0013158554970626377
-0.0014481299763485164
-0.0023630284580758373
-0.0009272992141603728
0.0012276725108720525
0.0016823660334172573
-0.0009162763408865498
-0.0024539671625848788
-0.0013406569619287408
0.0007977804531929496
0.0018614877241168832
-0.0003403312123292903
-0.002445700007629512
-0.001742991836423286
0.00027970540932326175
0.0018118847943846788
0.0001832552681773092
-0.002321692683299001
-0.0020819451895933475
-0.00020254529640650095
0.0016768545967803456
0.0007288874952315547
-0.0020213193865873205
-0.002332715556572824
-0.0006517273823147941
0.0014288399481193247
0.0011973596093690386
-0.0015804044556343942
-0.002495302937361716
-0.0010623294117647064
0.0010981537499046305
0.0015500915541313794
-0.0010540622568093393
-0.0026165545433737697
-0.0015363129625391013
0.0006682616922255276
0.001908334935530632
-2.342360570687485e-05
-0.0017815718928816668
-0.0006847960021362637
0.0016548088502326991
0.003192499671931028
0.0012800311589227123
-0.0015666258640421155
-0.001572137300679027
0.00013089662012664922
0.0008253376363775078
-0.0019303806820782797
-0.0022610668802929734
-0.000591101579308767
0.001514267215991454
0.0012882983138780798
-0.0015225343709468226
-0.0024649900358587017
-0.0010347722285801487
0.0011505123979552907
0.0016355188220035087
-0.0009658792706187539
-0.002517348683909362
-0.001409549919890136
0.0007399103685053779
0.0018366862592507814
-0.00035410980392156926
-0.0024512114442664236
-0.00174023611810483
0.0003127740291447311
0.0019028234988937198
0.0002879725642786291
-0.0022472882887006945
-0.0020185636682688644
-0.00012538518348973897
0.001800861921110856
0.0008776962844281674
-0.0018973120622568097
-0.0022307539787899604
-0.0005387429312581068
0.0015776487373159373
0.0013819927367055766
-0.0014205727931639587
-0.0023630284580758373
-0.0009272992141603728
0.0012634968490119777
0.001759526146334019
-0.0008336047913328761
-0.002390585641260396
-0.0012772754406042577
0.0008804520027466232
0.0019827393301289375
-0.00018876670481422206
-0.0022913797817959874
-0.0015776487373159384
0.0004726056916151668
0.0020461208514534206
0.0004533156633859763
-0.002062655161364157
-0.0018339305409323266
5.098078889143139e-05
0.0019441592736705567
0.0010265050736247801
-0.0017071674982833604
-0.002037853696498055
-0.000370644113832304
0.0017071674982833593
0.0014949771877622636
-0.0012717640039673465
-0.0022087082322423137
-0.0008005361715114068
0.001337901243610284
0.001800861921110856
-0.0007647118333714817
-0.002296891218432899
0.0009135206225680924
0.001968960738536659
-0.00019152242313267784
-0.0022555554436560626
-0.0015556029907682917
0.0004643385366597993
0.00200754079499504
0.0003982012970168605
-0.0021039909361409937
-0.001891800625619898
-4.2713633936065354e-05
0.0018256633859769582
0.0008832077210650791
-0.0018642434424353406
-0.0022087082322423137
-0.0005607886778057534
0.0015060000610360867
0.001285542595559624
-0.00147844287785153
-0.0024043642328526746
-0.0009989478904402233
0.0011422452429999228
0.0016052059205004952
-0.0009548563973449309
-0.002473257190814069
-0.0013792370183871219
0.0007343989318684667
0.0017981062027924003
-0.0003596212405584808
-0.0024098756694895867
-0.0017071674982833604
0.00030450687418936376
0.0018366862592507814
0.00024112535286488067
-0.0022335096971084155
-0.0020075407949950415
-0.00015569808499275262
0.0017154346532387268
0.0007895132982375822
-0.001919357808804456
-0.002236265415426872
-0.0005828344243533996
0.0014811985961699847
0.0012634968490119777
-0.0014867100328068976
-0.0023960970778973073
-0.0009961921721217675
0.001136733806363011
0.0015996944838635836
-0.0009576121156633864
-0.002470501472495613
-0.0013792370183871219
0.0007233760585946433
0.0017843276112001212
-0.000370644113832304
-0.0024181428244449544
-0.0017099232166018165
0.00029072828259708476
0.0018201519493400466
0.00023010247959105753
-0.0022335096971084155
-0.001996517921721218
-0.00015569808499275262
0.0017016560616464477
0.0007784904249637591
-0.002244532570382239
-0.0006048801709010458
0.0014481299763485153
0.0012386953841458756
-0.0014977329060807208
-0.002401608514534219
-0.0010017036087586794
0.0011146880598153653
0.0015748930189974813
-0.0009658792706187539
-0.0024649900358587017
-0.0013709698634317546
0.0007095974670023644
0.0017622818646524754
-0.00037891126878767127
-0.002415387106126498
-0.0017071674982833604
0.00027970540932326175
0.001800861921110856
0.00022734676127260172
-0.0022224868238345926
-0.001979983611810484
-0.0001336523384451063
0.001720946089875638
0.0008115590447852286
-0.001878022034027619
-0.002186662485694668
-0.0005414986495765627
0.001514267215991454
0.0013461683985656512
-0.0013434126802471967
-0.0022417768520637833
-0.0008584062561989784
0.0012304282291905084
0.001671343160143434
-0.0008556505378805224
-0.0023630284580758373
-0.0012717640039673465
0.0008143147631036844
0.0018477091325246043
-0.00030175115587090934
-0.002360272739757382
-0.0016713431601434352
0.00030450687418936376
0.001806373357747768
0.00022734676127260172
-0.0022335096971084155
-0.0019992736400396734
-0.0001584538033112084
0.0016823660334172573
0.0007647118333714802
-0.001924869245441368
-0.002239021133745327
-0.0005966130159456783
0.0014398628213931478
0.0012221610742351409
-0.0014949771877622651
-0.0023933413595788513
-0.0009961921721217675
0.0011091766231784534
0.0015418243991760121
-0.001015482200350958
-0.0025586844586861987
-0.0014701757228961628
0.0007399103685053779
0.0019910064850843048
-0.0014646642862592512
-0.0003568655222400251
0.0017843276112001212
0.003123606713969633
0.0011918481727321271
-0.001547335835812925
-0.0015225343709468226
9.782800030517979e-05
0.0017925947661554887
0.000858406256198977
-0.0018256633859769598
-0.002148082429236286
-0.0005249643396658282
0.0014977329060807197
0.0012634968490119777
-0.0014481299763485164
-0.0023382269932097363
-0.0009493449607080192
0.0011532681162737465
0.001602450202182039
-0.0009107649042496381
-0.002385074204623484
-0.0012993211871519042
0.0007729789883268476
0.0018091290760662239
-0.0003155297474631883
-0.0023244484016174565
-0.0016189845120927755
0.0003568655222400236
0.001864243442435339
0.0002879725642786291
-0.0021370595559624637
-0.001891800625619898
-6.475938048371164e-05
0.001773304737926298
0.000855650537880521
-0.0018091290760662245
-0.0021012352178225377
-0.00046709425497825643
0.0015611144274052025
0.0013461683985656512
-0.0013489241168841083
-0.0022307539787899604
-0.0008391162279697878
0.001257985412375066
0.0017154346532387268
-0.0007867575799191276
-0.0022638225986114295
-0.0011780695811398495
0.0008887191577019906
0.0019303806820782777
-0.00018601098649576628
-0.0021921739223315783
-0.00147844287785153
0.0004974071564812689
0.001999273640039672
0.0004395370717936973
-0.0019827393301289392
-0.0017319689631494627
9.507228198672396e-05
0.0019138463721675438
0.0009961921721217662
-0.0016548088502327005
-0.001946914991989014
-0.00032655262073701135
0.0014563971313038828
-0.0012442068207827886
-0.002131548119325552
-0.0007399103685053794
0.0013406569619287395
0.0017788161745632097
-0.0007343989318684678
-0.0022142196688792254
-0.0011257109330891897
0.0009383220874341949
0.0019772278934920263
-0.00014191949340047367
-0.0021618610208285647
-0.0014591528496223395
0.000508430029755092
0.002002029358358128
0.00043126991683832994
-0.0020213193865873205
-0.0018008619211108575
6.8892957961388014e-06
0.0018201519493400466
0.000896986312657358
-0.0017953504844739458
-0.0021232809643701844
-0.0005056743114366376
0.0015087557793545424
0.0012882983138780798
-0.001417817074845503
-0.0023189369649805444
-0.0009383220874341961
0.0011532681162737465
0.0016107173571374067
-0.0008914748760204477
-0.002385074204623484
-0.001310344060425727
0.0007564446784161128
0.0017870833295185766
-0.0003210411841000998
-0.0023299598382543686
-0.0016272516670481428
0.0003430869306477448
0.0018366862592507814
0.00027143825436789435
-0.002159105302510109
-0.0019331364003967355
-0.00011436231021591582
0.0017154346532387268
0.00081707048142214
-0.0018449534142061495
-0.002156349584191653
-0.0005414986495765627
0.0014729314412146172
0.0012607411306935217
-0.001431595666437782
-0.0023299598382543686
-0.0009465892423895632
0.0011422452429999228
0.0015941830472266717
-0.0009052534676127264
-0.00238782992294194
-0.001310344060425727
0.0007454218051422897
0.0017760604562447539
-0.0003320640573739229
-0.0023409827115281924
0.0003072625925078196
0.0018091290760662239
0.00025214822613870384
-0.002170128175783933
-0.0019414035553521024
-0.00013089662012665053
0.0016933889066910802
0.0007895132982375822
-0.0018669991607537957
-0.0021811510490577562
-0.0005635443961242091
0.0014619085679407943
0.001257985412375066
-0.0014288399481193262
-0.0023299598382543686
-0.0009548563973449309
0.001128466651407644
0.0015886716105897604
-0.0009080091859311822
-0.002401608514534219
-0.0013351455252918294
0.0007343989318684667
0.0017843276112001212
-0.00032655262073701135
-0.0023437384298466476
-0.0016465416952773332
0.0003293083390554659
0.001855976287479972
0.0003072625925078196
-0.002128792401007096
-0.0019110906538490886
-0.00010058371862363688
0.0017540147096971076
0.0008997420309758136
-0.0017347246814679183
-0.002035097978179599
-0.000423002761882964
0.0015721373006790259
0.0013544355535210185
-0.0013461683985656525
-0.0022555554436560626
-0.0008832077210650803
0.0012083824826428621
0.0016658317235065223
-0.0008446276646066993
-0.002349249866483559
-0.0012910540321965367
0.0007509332417792012
0.0017843276112001212
-0.00032655262073701135
-0.0023437384298466476
-0.0016575645685511565
0.00029623971923399637
0.001795350484473944
0.0002493925078202481
-0.002170128175783933
-0.001946914991989014
-0.00014191949340047367
0.001671343160143434
0.0007812461432822147
-0.0018587320057984289
-0.0021646167391470208
-0.0005470100862134743
0.0014508856946669714
0.0012276725108720525
-0.0014674200045777072
-0.0011009094682230872
0.0010265050736247801
0.0016327631036850527
-0.0005883458609903113
-0.0016823660334172581
-0.00012538518348973897
0.0022390211337453255
0.003203522545204852
0.0008198261997405958
-0.0015280458075837343
-0.0011422452429999243
0.000508430029755092
0.001806373357747768
0.00025214822613870384
-0.0020984794995040825
-0.001842197695887694
-5.9247943846800084e-05
0.0017126789349202708
0.0008115590447852286
-0.0017981062027924016
-0.002095723781185626
-0.000500162874799726
0.0014729314412146172
0.0012497182574196988
-0.001393015609979401
-0.0022555554436560626
-0.0008776962844281688
0.0011615352712291134
0.0015914273289082165
-0.0008473833829251552
-0.0022693340352483407
-0.0012056267643244074
0.0007977804531929496
0.0017870833295185766
-0.00027694969100480727
-0.002219731105516137
-0.0015087557793545439
0.0004092241702906837
0.0018449534142061489
0.00030450687418936376
-0.002035097978179599
-0.0017733047379262996
-1.377859159228559e-06
0.0017622818646524754
0.000858406256198977
-0.0017071674982833604
-0.0019634493018997486
-0.00037339983215075977
0.0015748930189974813
0.001337901243610284
-0.0012690082856488905
-0.002095723781185626
-0.0007426660868238351
0.0012882983138780798
0.0017016560616464477
-0.0007343989318684678
-0.00212603668268864
-0.0010485508201724275
0.0009438335240711064
0.0019221135271229105
-0.0001364080567635621
-0.0020461208514534223
-0.0013296340886549175
0.0005800787060349425
0.002004785076676584
-0.0018504648508430618
-0.001585915892271306
0.00017498811322194178
0.0019028234988937198
0.0009934364538033101
-0.0015666258640421155
-0.0018229076676585035
-0.00024112535286488197
0.0016740988784618896
0.0014205727931639574
-0.0011808252994583053
-0.001996517921721218
-0.0006407045090409712
0.0013489241168841066
0.0017374803997863729
-0.0006930631570916311
-0.002084700907911803
-0.0010099707637140464
0.0009658792706187528
0.001900067780575264
-0.00017498811322194308
-0.002087456626230259
-0.0013902598916609454
0.0004891400015259016
0.0018780220340276189
0.0003182854657816428
-0.0020075407949950415
-0.0017457475547417414
1.3778591592272275e-06
0.0017181903715571825
0.0007922690165560381
-0.001765037582970932
-0.0020102965133134967
-0.0004285141985198755
0.0014839543144884403
0.001224916792553597
-0.0013709698634317546
-0.0021756396124208446
-0.0008170704814221414
0.001178069581139848
0.0015666258640421142
-0.0008611619745174342
-0.002236265415426872
-0.001156023834592203
0.0008253376363775078
0.0017788161745632097
-0.00028797256427863044
-0.0021894182040131235
-0.0014674200045777072
0.00042851419851987416
0.0018311748226138695
0.0002824611276417174
-0.0020295865415426878
-0.001742991836423286
2.8935042343785094e-05
0.0017540147096971076
0.0008198261997405958
-0.001742991836423286
-0.001977227893492027
-0.0003899341420614945
0.0015280458075837332
0.001257985412375066
-0.00135443555352102
-0.002159105302510109
-0.0007784904249637603
0.0015914273289082165
-0.0008556505378805224
-0.0022307539787899604
-0.0011394895246814685
0.0008473833829251538
0.0017898390478370328
-0.00029348400091554195
-0.0021976853589684904
-0.0014563971313038841
0.0004478042267490647
0.0018449534142061489
0.00027970540932326175
-0.002037853696498055
-0.001742991836423286
3.169076066224089e-05
0.0017567704280155635
0.00081707048142214
-0.0017512589913786531
-0.0019827393301289392
-0.00037891126878767127
0.0015473358358129234
0.0012772754406042562
-0.0013323898069733738
-0.00212603668268864
-0.0007426660868238351
0.0012607411306935217
0.0016410302586404204
-0.0008060476081483182
-0.0021728838941023885
-0.0010678408484016179
0.0009272992141603715
0.0018725105973907065
-0.00019703385976958942
-0.002059899443045701
-0.0013048326237888157
0.0005966130159456772
0.0019744721751735706
0.00038993414206149314
-0.0019221135271229122
-0.0016189845120927755
0.00015294236667429551
0.0018614877241168832
0.000896986312657358
-0.0016713431601434352
-0.0018973120622568097
-0.0003045068741893651
0.0015941830472266717
0.001293809750514991
-0.0013323898069733738
-0.0021150138094148166
-0.0007343989318684678
0.0012552296940566102
0.0016134730754558623
-0.0008446276646066993
-0.0021976853589684904
-0.00109264231326772
0.0008887191577019906
0.0018146405127031347
-0.00027694969100480727
-0.002167372457465477
-0.001431595666437782
0.000469849973296711
0.0018614877241168832
0.00027143825436789435
-0.0020709223163195246
-0.0017925947661554897
0.0019166020904859992
0.0012028710460059502
-0.0011091766231784547
-0.0010485508201724275
0.0008666734111543443
0.002839767727168688
0.002318936964980544
-0.0006269259174486923
-0.0016603202868696126
-0.0004560713817044334
0.001376481300068665
0.0016492974135957881
-0.0008170704814221414
-0.0021618610208285647
-0.0010320165102616929
0.0009686349889372082
0.001900067780575264
-0.0002218353246356915
-0.0021425709925993745
-0.0013902598916609454
0.000547010086213473
0.0019634493018997477
0.00036788839551384685
-0.0019827393301289392
-0.001679610315098803
0.00013089662012664922
0.0018752663157091622
0.00092178777752346
-0.0016851217517357146
-0.001913846372167545
-0.00027694969100480727
0.0016823660334172573
0.001401282764934767
-0.0012607411306935232
-0.0020681665980010686
-0.0006627502555886173
0.001376481300068665
0.0017650375829709308
-0.0007288874952315562
-0.00212603668268864
-0.0010099707637140464
0.0010292607919432355
0.001996517921721217
-0.0001364080567635621
-0.002076433752956436
-0.0013213669336995504
0.0006324373540856024
0.0020654108796826116
0.0004670942549782553
-0.001891800625619898
-0.001588671610589762
0.00022734676127260172
0.0020102965133134963
0.0010540622568093376
-0.0015638701457236597
-0.0017981062027924016
-0.00016672095826657574
0.001806373357747768
0.0015335572442206446
-0.0011257109330891897
-0.0019331364003967355
-0.0005277200579842838
0.001514267215991454
0.001897312062256809
-0.0005993687342641343
-0.0008804520027466246
0.001136733806363011
0.0020984794995040803
-3.169076066224221e-05
-0.001974472175173572
-0.0012386953841458767
0.0006985745937285414
0.0021315481193255503
0.0005222086213473709
-0.0018532205691615172
-0.0015556029907682917
0.00024112535286488067
0.001999273640039672
0.001037527946898603
-0.0015914273289082171
-0.0018146405127031364
-0.00018049954985885472
0.0017815718928816655
0.001500488624399175
-0.001164290989547571
-0.0019827393301289392
-0.00060212445258259
0.001423328511482413
0.001795350484473944
-0.0007095974670023658
-0.00212603668268864
-0.001026505073624781
0.0009961921721217662
0.001960693583581292
-0.00017223239490348733
-0.002117769527733273
-0.0013792370183871219
0.000547010086213473
0.0019799836118104823
0.0003954455786984048
-0.00196896073853666
-0.001676854596780347
0.00013089662012664922
0.001900067780575264
0.0009465892423895617
-0.001676854596780347
-0.0019166020904860003
-0.00028797256427863044
0.001671343160143434
0.0013985270466163114
-0.0012690082856488905
-0.002095723781185626
-0.0006875517204547195
0.00135994699015793
0.0017512589913786518
-0.0007481775234607469
-0.0021535938658731974
-0.0010485508201724275
0.00097414642557412
0.0019441592736705567
-0.00018049954985885472
-0.0021343038376440077
-0.0013902598916609454
0.0005525215228503846
0.0019910064850843048
0.0004009570153353164
-0.001979983611810484
-0.0016961446250095377
0.00011436231021591448
0.0018807777523460734
-0.0016823660334172581
-0.001924869245441368
-0.0002989954375524536
0.001657564568551155
0.0013902598916609437
-0.0012772754406042577
-0.0021012352178225377
-0.0007040860303654542
0.001337901243610284
0.00172645752651255
-0.0007674675516899373
-0.0021811510490577562
-0.0010788637216754414
0.0009521006790264736
0.0019138463721675438
-0.0001997895780880452
-0.0021425709925993745
-0.0014067942015716798
0.0005277200579842825
0.001957937865262836
0.0003844227054245816
-0.001960693583581293
-0.0016630760051880677
0.00015294236667429551
0.0019138463721675438
0.0009631235523002968
-0.0016465416952773332
-0.0018973120622568097
-0.00027419397268635144
0.0017099232166018147
0.0014729314412146172
-0.001161535271229115
-0.001988250766765851
-0.0006241701991302363
0.0014040384832532226
0.0017981062027924003
-0.0006847960021362637
-0.002095723781185626
-0.0009989478904402233
0.0010127264820325008
0.001968960738536659
-0.00015569808499275262
-0.0021095023727779054
-0.001401282764934768
0.0005139414663920035
0.0019331364003967336
0.00035410980392156795
-0.00200202935835813
-0.0017209460898756396
6.751509880216611e-05
0.0018201519493400466
0.0008804520027466232
-0.001712678934920272
-0.0019551821469443813
-0.0003485983672846577
0.001602450202182039
0.0013434126802471958
-0.00130207690547036
-0.0021150138094148166
-0.0007343989318684678
0.001271764003967345
0.001618984512092774
-0.0009190320592050054
-0.0023244484016174565
-0.0011064209048599993
0.0011009094682230861
0.0006903074387731741
-0.0007674675516899373
0.00024388107118333642
0.002073678034637979
0.003203522545204852
0.001318611215381093
-0.0013048326237888157
-0.0013268783703364617
0.0002576596627756154
0.0019634493018997477
0.0010017036087586776
-0.0016162287937743196
-0.0018669991607537957
-0.00026592681773098404
0.001657564568551155
0.001379237018387121
-0.0012579854123750671
-0.0020681665980010686
-0.0006820402838178078
0.0013296340886549166
0.0017071674982833593
-0.0007509332417792025
-0.0021343038376440077
-0.0010320165102616929
0.00097414642557412
0.0019166020904859992
-0.00018325526817731047
-0.002095723781185626
-0.00135443555352102
0.0005773229877164866
0.001996517921721217
0.00042300276188296266
-0.001913846372167545
-0.0016217402304112315
0.000172232394903486
0.0019193578088044546
0.0009769021438925758
-0.0016134730754558636
-0.0018449534142061495
-0.00022459104295414727
0.0017347246814679172
0.0014619085679407943
-0.0011808252994583053
-0.0019854950484473953
-0.0005855901426718552
0.001453641412985427
0.0018366862592507814
-0.0006434602273594267
-0.002035097978179599
-0.0009300549324788287
0.0010926423132677188
0.0020571437247272444
-4.8225070572976926e-05
-0.001977227893492027
-0.0012414511024643328
0.0007068417486839086
0.002137059555962462
0.0005497658045319286
-0.0018036176394293124
-0.0015060000610360883
0.00029623971923399637
0.0020571437247272444
0.0011091766231784534
-0.0014977329060807208
-0.0017374803997863744
0.0018201519493400466
0.0015363129625391005
-0.0011229552147707339
-0.0019358921187151907
-0.0005552772411688418
0.00146466428625925
0.001842197695887693
-0.0006462159456778825
-0.0020433651331349667
-0.0009438335240711076
0.0010678408484016168
0.002032342259861142
-7.85379720759906e-05
-0.002004785076676585
-0.001266252567330435
0.0006572388189517045
0.002073678034637979
0.00047536140993362247
-0.0018890449073014426
-0.001610717357137408
0.000172232394903486
0.0019166020904859992
0.0009548563973449294
-0.0016658317235065242
-0.0019083349355306328
-0.00029072828259708617
0.0016520531319142435
0.001376481300068665
-0.0012772754406042577
-0.002092968062867171
-0.0007040860303654542
0.001321366933699549
0.0017126789349202708
-0.0007757347066453045
-0.0021783953307393
-0.0010650851300831622
0.0009548563973449294
0.0019110906538490876
-0.0002080567330434125
-0.002145326710917831
-0.0013957713282978569
0.0005442543678950173
0.0019662050202182034
0.0003733998321507585
-0.001991006485084307
-0.0016961446250095377
0.00011711802853437029
0.0018780220340276189
0.00092178777752346
-0.0016989003433279934
-0.0019358921187151907
-0.0003045068741893651
0.001657564568551155
0.0013819927367055766
-0.0012910540321965367
-0.0021150138094148166
-0.0007151089036392773
0.001332389806973372
0.0017154346532387268
-0.0007867575799191276
-0.0021976853589684904
-0.0010816194399938968
0.0009465892423895617
0.0019166020904859992
-0.0002108124513618684
-0.001417817074845503
0.0005332314946211942
0.001960693583581292
0.0003596212405584795
-0.0020102965133134967
-0.0017181903715571835
9.507228198672396e-05
0.001864243442435339
0.0009107649042496368
-0.0017181903715571835
-0.001960693583581293
-0.0003210411841000998
0.0016437859769588762
0.0013682141451132974
-0.0013048326237888157
-0.0021232809643701844
-0.000720620340276189
0.001324122652018005
0.0017099232166018147
-0.0007867575799191276
-0.0022004410772869464
-0.0010898865949492643
0.0009410778057526506
0.0019028234988937198
-0.00022459104295414727
-0.0021618610208285647
-0.0014123056382085914
0.000547010086213473
0.001988250766765849
0.0003954455786984048
-0.0019662050202182047
-0.0016685874418249794
0.00014467521171892812
0.0019248692454413665
0.0009961921721217662
-0.0015831601739528503
-0.0018063733577477691
-0.00018876670481422206
0.001759526146334019
0.00146466428625925
-0.0012111382009613188
-0.002024075104905776
-0.0006186587624933248
0.001423328511482413
0.0017925947661554887
-0.0007288874952315562
-0.0021535938658731974
-0.001056817975127795
0.000960367833981841
0.0019166020904859992
-0.0002190796063172357
-0.0021728838941023885
-0.001431595666437782
0.0005222086213473709
0.001960693583581292
0.00035135408560311223
-0.0020213193865873205
-0.0017181903715571835
9.782800030517979e-05
0.0018669991607537949
0.000908009185931181
-0.0017237018081940952
-0.0019634493018997486
-0.00032379690241855563
0.0016548088502326991
-0.0013902598916609454
-0.0022748454718852524
-0.0008501391012436108
0.0013296340886549166
0.0019193578088044546
-0.00027419397268635144
-0.0012276725108720536
0.0003596212405584795
0.002547661585412374
0.003313751277943083
0.0007950247348744939
-0.0014674200045777072
-0.0009355663691157402
0.0008005361715114055
0.002137059555962462
0.0005056743114366363
-0.0019166020904860003
-0.0016465416952773332
0.00016396523994811866
0.0019303806820782777
0.0009576121156633854
-0.00168787747005417
-0.0019331364003967355
-0.00028797256427863044
0.0016851217517357133
0.0014040384832532226
-0.0012827868772411696
-0.0020984794995040825
-0.0006792845654993521
0.0013819927367055766
0.0017677933012893864
-0.0007564446784161143
-0.0021728838941023885
-0.001043039383535516
0.0010292607919432355
0.002015807949950408
-0.00014743093003738526
-0.0021343038376440077
-0.0013792370183871219
0.0006214144808117793
0.0020874566262302574
0.0004643385366597993
-0.0019496707103074694
-0.0016548088502327005
0.00020254529640649968
0.002015807949950408
0.0010457951018539703
-0.001632763103685054
-0.0018807777523460753
-0.0002080567330434125
0.0018173962310215907
0.0015390686808575565
-0.001186336736095217
-0.0020185636682688644
-0.0005828344243533996
0.001514267215991454
0.0019138463721675438
-0.0006324373540856038
-0.002065410879682613
-0.0009328106507972846
0.0011450009613183788
0.002137059555962462
-2.8935042343786426e-05
-0.0020130522316319528
-0.0012552296940566115
0.0007316432135500107
0.0005745672693980309
-0.0018366862592507824
-0.001544580117494469
0.00029623971923399637
0.0021012352178225373
0.0011229552147707324
-0.0015528472724498366
-0.0017981062027924016
-0.0001364080567635621
0.0018697548790722507
0.0015941830472266717
-0.0011257109330891897
-0.0019579378652628365
-0.0005277200579842838
0.0015666258640421142
0.0019744721751735706
-0.0005718115510795765
-0.002015807949950409
-0.0008859634393835361
0.001180825299458304
0.0021646167391470203
-2.6179324025330647e-05
-0.002032342259861144
-0.0012910540321965367
0.0006737731288624392
0.002123280964370183
0.00048362856488898997
-0.001946914991989014
-0.0016575645685511565
0.00017774383154039756
0.001968960738536659
0.0009906807354848547
-0.0016961446250095377
-0.0019386478370336465
-0.00027419397268635144
0.0017237018081940941
0.0014481299763485153
-0.0012772754406042577
-0.0021205252460517283
-0.0006875517204547195
0.0013985270466163114
0.001795350484473944
-0.0007536889600976582
-0.0021949296406500347
-0.0010595736934462504
0.0010127264820325008
0.001988250766765849
-0.0001777438315403989
-0.0021646167391470208
-0.0014067942015716798
0.0005883458609903097
0.0020433651331349654
0.0004092241702906837
-0.002004785076676585
-0.0017071674982833604
0.00013916377508201656
0.0019331364003967336
0.0009548563973449294
-0.0017071674982833604
-0.001946914991989014
-0.00027419397268635144
0.0017237018081940941
0.0014343513847562366
-0.0012855425955596252
-0.0021232809643701844
0.0013819927367055766
0.0017622818646524754
-0.0007757347066453045
-0.0021976853589684904
-0.0010733522850385297
0.0009961921721217662
0.0019744721751735706
-0.0001997895780880452
-0.002170128175783933
-0.0014150613565270473
0.0005718115510795751
0.002024075104905775
0.00038993414206149314
-0.0020130522316319528
-0.001712678934920272
0.00013365233844510492
0.0019358921187151898
0.000949344960708018
-0.001712678934920272
-0.001946914991989014
-0.0002852168459601746
0.001720946089875638
0.0014315956664377805
-0.001274519722285802
-0.0020791894712748915
-0.0006517273823147941
0.0014315956664377805
0.0018036176394293122
-0.0007426660868238351
-0.0021343038376440077
-0.0009603678339818424
0.0011422452429999228
0.002123280964370183
-6.475938048371164e-05
-0.002048876569771878
-0.0012965654688334484
0.000679284565499351
0.0021343038376440064
0.0004946514381628131
-0.0019110906538490886
-0.0016162287937743196
0.00020805673304341124
0.001988250766765849
0.000982413580529487
-0.0016989003433279934
-0.0019331364003967355
-0.00027143825436789566
0.0017319689631494616
0.0014371071030746922
-0.00130207690547036
-0.00212603668268864
-0.0006930631570916311
0.0013902598916609437
0.001773304737926298
-0.0007922690165560394
-0.0022252425421530487
-0.0010816194399938968
0.000998947890440222
0.0019827393301289375
-0.00020254529640650095
-0.0021921739223315783
-0.0014453742580300608
0.0005001628747997245
0.001905579217212176
0.00029072828259708476
-0.0014867100328068976
0.0007068417486839086
0.002985820798046844
0.0024264099794003196
-0.0001997895780880452
-0.0007013303120469984
0.000599368734264133
0.002332715556572822
0.0018311748226138695
-0.0011036651865415433
-0.002015807949950409
-0.0005800787060349438
0.0015032443427176307
0.0018725105973907065
-0.0007151089036392773
-0.002167372457465477
-0.0010320165102616929
0.001051306538490882
0.002024075104905775
-0.00016396523994811996
-0.002148082429236286
-0.0013764813000686665
0.0006214144808117793
0.0020847009079118014
0.0004450485084306089
-0.0019634493018997486
-0.0016520531319142448
0.00019978957808804387
0.00200754079499504
0.0010237493553063243
-0.0016575645685511565
-0.0018862891889829868
-0.0002080567330434125
0.0018146405127031347
0.0015280458075837332
-0.0012111382009613188
-0.0020433651331349667
-0.0005966130159456783
0.0015087557793545424
0.0019028234988937198
-0.0006572388189517057
-0.002087456626230259
-0.0009438335240711076
0.0011394895246814672
0.0021260366826886382
-5.098078889143272e-05
-0.0020295865415426878
-0.001263496849011979
0.0007454218051422897
0.0022114639505607684
0.0005690558327611192
-0.001842197695887694
-0.0015252900892652787
0.0003375754940108332
0.002139815274280918
0.0011560238345922017
-0.001511511497673
-0.001742991836423286
-7.027081712062322e-05
0.0019358921187151898
0.0016382745403219644
-0.0010843751583123526
-0.0019000677805752653
-0.0004698499732967123
0.0016162287937743183
0.0019854950484473935
-0.001988250766765851
-0.0008528948195620666
0.0012111382009613175
0.002178395330739299
4.133577477683014e-06
-0.0019579378652628365
-0.0011890924544136726
0.0007950247348744939
0.0022390211337453255
0.0006048801709010444
-0.0017760604562447552
-0.0014591528496223395
0.00038993414206149314
0.002172883894102387
0.0011725581445029367
-0.0014922214694438093
-0.0017237018081940952
-7.85379720759906e-05
0.001900067780575264
0.0015776487373159373
-0.001147756679636836
-0.001974472175173572
-0.0005607886778057534
0.0014949771877622636
0.0018477091325246043
-0.0007095974670023658
-0.002117769527733273
-0.0009906807354848563
0.0010650851300831607
0.0020268308232242304
-0.00014743093003738526
-0.002095723781185626
-0.0013296340886549175
0.0006434602273594254
0.0020819451895933466
0.0004422927901121532
-0.0019414035553521024
-0.0016300073853665984
0.00020254529640649968
0.0019854950484473935
0.0009906807354848547
-0.0016658317235065242
-0.001883533470664531
-0.00022459104295414727
0.0017677933012893864
0.0014619085679407943
-0.0012524739757381555
-0.0020571437247272452
-0.0006269259174486923
0.0014481299763485153
0.0018118847943846788
-0.0007426660868238351
-0.002145326710917831
-0.0010044593270771348
0.0010595736934462493
0.002015807949950408
-0.00017223239490348733
-0.0021232809643701844
-0.001351679835202564
0.0006269259174486908
0.0020654108796826116
0.00041197988860913943
-0.0019717164568551163
-0.001649297413595789
0.00019152242313267648
0.00097414642557412
-0.0016823660334172581
-0.0018945563439383547
-0.00022734676127260308
0.0017567704280155635
0.0014426185397116034
-0.0012690082856488905
-0.0020681665980010686
-0.0006324373540856038
0.0014426185397116034
0.0017981062027924003
-0.0007509332417792025
-0.0021398152742809194
-0.0009906807354848563
0.0010843751583123511
0.0020433651331349654
-0.0001364080567635621
-0.0020791894712748915
-0.00130207690547036
0.000679284565499351
0.0021315481193255503
0.0005194529030289152
-0.0018229076676585035
-0.0014922214694438093
0.0003375754940108332
0.002095723781185625
0.0010788637216754397
-0.0015748930189974828
-0.001787083329518578
-0.0001226294651712832
0.0018477091325246043
0.0015197786526283655
-0.0012028710460059518
-0.0020213193865873205
-0.00060212445258259
0.0014591528496223384
0.0018091290760662239
-0.000745421805142291
-0.002145326710917831
-0.0010017036087586794
0.0010568179751277937
0.00200754079499504
-0.00018601098649576628
-0.0021398152742809194
-0.0013571912718394756
0.0006241701991302349
0.0020598994430457
0.0004009570153353164
-0.001988250766765851
-0.0016575645685511565
0.0001970338597695881
0.001968960738536659
0.0009355663691157388
-0.0017733047379262996
-0.002037853696498055
-0.00032655262073701135
0.001800861921110856
0.001687877470054169
-0.0007068417486839102
-0.0010457951018539718
0.0008198261997405958
0.0029610193331807417
0.003046446601052872
0.00010885087357900291
-0.001572137300679027
0.0012607411306935217
0.0021343038376440064
-7.302653543907902e-05
-0.0020516322880903336
-0.0012827868772411696
0.0007040860303654528
0.002123280964370183
0.0004478042267490647
-0.001946914991989014
-0.0016162287937743196
0.00024663678950179223
0.0020268308232242304
0.0010044593270771337
-0.001649297413595789
-0.0018504648508430618
-0.00016672095826657574
0.0018256633859769582
0.0015032443427176307
-0.0012166496375982305
-0.0020075407949950415
-0.0005552772411688418
0.0015335572442206446
0.0018780220340276189
-0.0006958188754100868
-0.002090212344548715
-0.0009272992141603728
0.0011560238345922017
0.00211225809109636
-8.956084534981374e-05
-0.002037853696498055
-0.0012442068207827886
0.0007592003967345686
0.0022031967956054007
0.0005332314946211942
-0.0018559762874799726
-0.0015170229343099112
0.0003430869306477448
0.0021315481193255503
0.0011174437781338207
-0.0015363129625391013
-0.0017292132448310067
-4.2713633936065354e-05
0.0019496707103074684
0.001618984512092774
-0.0011009094682230872
-0.0018807777523460753
-0.0004285141985198755
0.0016520531319142435
0.001996517921721217
-0.0005580329594872974
-0.0019386478370336465
-0.0007812461432822162
0.0012800311589227123
0.0022114639505607684
1.2400732433050376e-05
-0.001913846372167545
-0.001120199496452278
0.000855650537880521
0.002266578316929884
0.0005938572976272215
-0.001767793301289388
-0.0014233285114824145
0.00042024704356450677
0.002178395330739299
0.0011477566796368347
-0.001483954314488442
6.8892957961388014e-06
0.0019799836118104823
0.0016437859769588762
-0.0010540622568093393
-0.001820151949340048
-0.00037891126878767127
0.001671343160143434
0.0019799836118104823
-0.0005883458609903113
-0.0019634493018997486
-0.0008225819180590531
0.0012111382009613175
0.002115013809414816
-9.78280003051811e-05
-0.002024075104905776
-0.0012414511024643328
0.0007233760585946433
0.002117769527733272
0.0004395370717936973
-0.001913846372167545
-0.0015638701457236597
0.00027970540932326175
0.0020268308232242304
0.0009906807354848547
-0.00163551882200351
-0.0018118847943846804
-0.00014743093003738526
0.0018146405127031347
0.0014619085679407943
-0.0012359396658274211
-0.001996517921721218
-0.00054976580453193
0.0015032443427176307
0.0018201519493400466
-0.0007371546501869236
-0.002092968062867171
-0.0009272992141603728
0.0011201994964522765
0.002032342259861142
-0.00016947667658503157
-0.0020791894712748915
-0.0012772754406042577
0.0006985745937285414
0.0020902123445487135
0.00041197988860913943
-0.0019358921187151907
-0.001572137300679027
0.0002741939726863501
0.0020102965133134963
0.0009658792706187528
-0.0016685874418249794
-0.001842197695887694
-0.00016947667658503157
0.0017925947661554887
0.0014398628213931478
-0.0012607411306935232
-0.0020185636682688644
-0.0005607886778057534
0.001492221469443808
0.0018036176394293122
-0.0007592003967345699
-0.002117769527733273
-0.0009465892423895632
0.0011091766231784534
0.002015807949950408
-0.002092968062867171
-0.0012772754406042577
0.0007123531853208202
0.002109502372777904
0.0004340256351567857
-0.001913846372167545
-0.0015556029907682917
0.000301751155870908
0.0020626551613641565
0.0010402836652170589
-0.001550091554131381
-0.0016961446250095377
-1.5156450751507488e-05
0.0019276249637598223
0.0015445801174944675
-0.001161535271229115
-0.001919357808804456
-0.0004698499732967123
0.0015914273289082165
0.001886289188982985
-0.0006875517204547195
-0.00205438800640879
-0.0009080091859311822
0.001136733806363011
0.002024075104905775
-0.00019703385976958942
-0.0020984794995040825
-0.0012910540321965367
0.0006903074387731741
0.0020847009079118014
0.0003816669871061258
-0.0019717164568551163
-0.0016079616388189524
0.00024388107118333642
0.001996517921721217
0.0009410778057526506
-0.0016933889066910817
-0.0018559762874799726
-0.00017223239490348733
0.0017981062027924003
0.001423328511482413
-0.0013213669336995504
-0.00212603668268864
-0.0007123531853208215
0.0014040384832532226
0.001855976287479972
-0.000500162874799726
-0.0014949771877622651
0.00016672095826657444
0.0026055316700999455
0.003520430151827267
0.0009879250171663987
-0.0012993211871519042
-0.0007481775234607469
0.001037527946898603
0.0022583111619745165
0.0005001628747997245
-0.0018697548790722524
-0.0015225343709468226
0.00032379690241855427
0.0020626551613641565
0.0009879250171663987
-0.0016685874418249794
-0.0018339305409323266
-0.00014743093003738526
0.001453641412985427
-0.0012607411306935232
-0.0020075407949950415
-0.0005414986495765627
0.0015252900892652771
0.0018284191042954136
-0.0007426660868238351
-0.002090212344548715
-0.0009052534676127264
0.0011615352712291134
0.0020709223163195233
-0.00014743093003738526
-0.00205438800640879
-0.0012359396658274211
0.0007592003967345686
0.0021563495841916518
0.0004643385366597993
-0.0018890449073014426
-0.0015142672159914558
0.0003568655222400236
0.002109502372777904
0.001048550820172426
-0.0015831601739528503
-0.001742991836423286
-4.5469352254521147e-05
0.0019248692454413665
0.0015556029907682909
-0.001147756679636836
-0.0018945563439383547
-0.0004257584802014197
0.0016437859769588762
0.0019496707103074684
-0.0006103916075379574
-0.0019524264286259257
-0.0007729789883268486
0.001293809750514991
0.0021894182040131226
-2.8935042343786426e-05
-0.001913846372167545
-0.0011009094682230872
0.0008804520027466232
0.002255555443656061
0.0005552772411688404
-0.0017705490196078433
-0.0013985270466163123
0.0004478042267490647
0.002178395330739299
0.001103665186541542
-0.0015087557793545439
-0.0016603202868696126
1.5156450751506162e-05
0.001968960738536659
0.001580404455634393
-0.0011091766231784547
-0.0018339305409323266
-0.00037891126878767127
0.0016796103150988014
0.001971716456855115
-0.0005855901426718552
-0.0019000677805752653
-0.0007288874952315562
0.0013103440604257258
0.0021894182040131226
-4.5469352254521147e-05
-0.0019386478370336465
-0.0011367338063630126
0.0021673724574654755
0.0004505599450675205
-0.001878022034027619
-0.0015087557793545439
0.0003182854657816428
0.0020350979781795973
0.0009576121156633854
-0.0016575645685511565
-0.0017925947661554897
-0.0001171180285343716
0.001822907667658502
0.0014343513847562366
-0.001266252567330435
-0.0019854950484473953
-0.0005277200579842838
0.00151702293430991
0.0017925947661554887
-0.0007619561150530257
-0.002076433752956436
-0.000899742030975815
0.0011394895246814672
0.002015807949950408
-0.0002080567330434125
-0.002087456626230259
-0.0012552296940566115
0.0007206203402761877
0.0020902123445487135
0.0003816669871061258
-0.0019496707103074694
-0.0015611144274052038
0.00029072828259708476
0.00200754079499504
0.0009328106507972832
-0.0016851217517357146
-0.0018256633859769598
-0.00014467521171892948
0.0017981062027924003
0.0014067942015716782
-0.0012993211871519042
-0.0020213193865873205
-0.0005470100862134743
0.001500488624399175
0.0017705490196078426
-0.0007977804531929508
-0.0021150138094148166
-0.0009245434958419172
0.001125710933089188
0.001999273640039672
-0.00023010247959105888
-0.0021095023727779054
-0.0012772754406042577
0.000701330312046997
0.0020654108796826116
0.0003568655222400236
-0.001960693583581293
-0.0015666258640421155
0.00029623971923399637
0.0020268308232242304
0.000949344960708018
-0.0016520531319142448
-0.001787083329518578
-0.00010333943694209268
0.001855976287479972
0.0014839543144884403
-0.0011725581445029378
-0.00040371273365377345
0.001630007385366597
0.0018780220340276189
-0.0006985745937285427
-0.002015807949950409
-0.0008336047913328761
0.0012194053559166852
0.002073678034637979
-0.00017223239490348733
-0.0020571437247272452
-0.0012414511024643328
0.0007316432135500107
0.0020874566262302574
0.0003596212405584795
-0.0019717164568551163
-0.0015831601739528503
0.00027143825436789435
0.001999273640039672
0.0009052534676127252
-0.0017099232166018165
-0.0018449534142061495
-0.00015569808499275262
0.0017981062027924003
0.0013930156099793995
-0.0013158554970626386
-0.0020295865415426878
-0.0005552772411688418
0.0015032443427176307
0.0017622818646524754
-0.0008501391012436108
-0.002219731105516137
-0.0010595736934462504
0.0010650851300831607
0.0021012352178225373
9.782800030517979e-05
-0.0014150613565270473
-9.78280003051811e-05
0.0022224868238345918
0.0035369644617380016
0.0014784428778515288
-0.0012276725108720536
-0.0010953980315861755
0.0005663001144426635
0.0021480824292362853
0.0010209936369878683
-0.0016162287937743196
-0.001765037582970932
-7.57822537575348e-05
0.0018725105973907065
0.001453641412985427
-0.0012772754406042577
-0.0019992736400396734
-0.0005194529030289164
0.0015473358358129234
0.001822907667658502
-0.0007674675516899373
-0.002084700907911803
-0.0008859634393835361
0.0011863367360952157
0.002073678034637979
-0.00017498811322194308
-0.002065410879682613
-0.001222161074235142
0.0007950247348744939
0.0021894182040131226
-0.0019055792172121765
-0.001511511497673
0.00037064411383230263
0.002123280964370183
0.0010265050736247801
-0.0016162287937743196
-0.001748503273060197
-3.720219729915378e-05
0.001946914991989013
0.0015500915541313794
-0.0011753138628213936
-0.0018973120622568097
-0.0004147356069275966
0.0016630760051880667
0.001938647837033645
-0.0006572388189517057
-0.0019717164568551163
-0.0007647118333714817
0.0013130997787441814
0.002197685358968489
-5.3736507209888505e-05
-0.0019358921187151907
-0.0010843751583123526
0.00092178777752346
0.0023024026550698094
0.0005718115510795751
-0.001767793301289388
-0.0013709698634317546
0.0005056743114366363
0.002244532570382237
0.0011505123979552907
-0.001472931441214619
-0.0016052059205004963
8.956084534981241e-05
0.0020461208514534206
0.0016355188220035087
-0.0010816194399938968
-0.0017953504844739458
-0.0003155297474631883
0.0017429918364232845
0.002002029358358128
-0.000577322987716488
-0.0018807777523460753
-0.0006765288471808962
0.0013902598916609437
0.0022638225986114278
2.3423605706873515e-05
-0.0018477091325246056
-0.0010072150453955906
0.00097414642557412
0.0023161812466620884
0.0005690558327611192
-0.0017733047379262996
-0.001393015609979401
0.0004478042267490647
0.0021425709925993732
0.0010237493553063243
-0.0016024502021820407
-0.00174023611810483
-5.9247943846800084e-05
0.0018780220340276189
0.0014591528496223384
-0.0012469625391012442
-0.0019551821469443813
-0.00048362856488899143
0.0015666258640421142
-0.0007564446784161143
-0.0020681665980010686
-0.000874940566109713
0.0011890924544136717
0.0020571437247272444
-0.00018876670481422206
-0.002062655161364157
-0.001222161074235142
0.0007702232700083917
0.0021260366826886382
0.00038993414206149314
-0.0019331364003967355
-0.0015363129625391013
0.0003348197756923775
0.0020626551613641565
0.000949344960708018
-0.0016685874418249794
-0.0017953504844739458
-9.78280003051811e-05
0.0018587320057984274
0.0014343513847562366
-0.0012800311589227138
-0.001988250766765851
-0.0005139414663920051
0.0015500915541313794
0.0017981062027924003
-0.0007895132982375835
-0.002090212344548715
-0.0008887191577019918
0.0011835810177767598
0.0020378536964980537
-0.00021356816968032413
-0.0020791894712748915
-0.0012386953841458767
0.0007592003967345686
0.002117769527733272
0.000365132677195391
-0.0019579378652628365
-0.0015556029907682917
0.0003182854657816428
0.0020543880064087887
0.0009410778057526506
-0.0016713431601434352
-0.0017788161745632112
-7.302653543907902e-05
0.001891800625619897
0.00146466428625925
-0.0012552296940566115
-0.0019496707103074694
-0.0004422927901121546
0.0016658317235065223
0.0019358921187151898
-0.0006599945372701616
-0.001974472175173572
-0.0007895132982375835
0.001271764003967345
0.0021287924010070947
-0.0001336523384451063
-0.0019992736400396734
-0.001164290989547571
0.00081707048142214
0.0021646167391470203
0.0004009570153353164
-0.0019331364003967355
-0.0015363129625391013
0.0020433651331349654
0.0009328106507972832
-0.0016851217517357146
-0.0017981062027924016
-0.00010885087357900426
0.0018449534142061489
0.0014205727931639574
-0.0012993211871519042
-0.001996517921721218
-0.0005139414663920051
0.0015418243991760121
0.0017870833295185766
-0.0008088033264667742
-0.0021039909361409937
-0.0009052534676127264
0.0011394895246814672
0.001957937865262836
-0.0003458426489662019
-0.002156349584191653
-0.0011367338063630126
0.0011009094682230861
0.002781897642481116
0.0014563971313038828
-0.0005607886778057534
-0.0002190796063172357
0.0013434126802471958
0.0026992260929274425
0.001318611215381093
-0.0015060000610360883
-0.0017292132448310067
-4.5469352254521147e-05
0.0019276249637598223
0.0015032443427176307
-0.001222161074235142
-0.0019276249637598239
-0.00044504850843061025
0.0016052059205004952
0.0018366862592507814
-0.0007509332417792025
-0.0020433651331349667
-0.0008363605096513318
0.0012304282291905084
0.002073678034637979
-0.00018325526817731047
-0.002026830823224232
-0.001161535271229115
0.0008446276646066979
0.002186662485694666
0.0004340256351567857
-0.0018725105973907078
-0.0014563971313038841
0.00042300276188296266
0.0021425709925993732
0.0010127264820325008
-0.0015969387655451288
-0.0016961446250095377
1.2400732433050376e-05
0.0019662050202182034
0.0015252900892652771
-0.0011780695811398495
-0.0018587320057984289
-0.00036788839551384826
0.0016989003433279916
0.0019358921187151898
-0.0006517273823147941
-0.0007233760585946446
0.0013489241168841066
0.0022004410772869447
-5.6492225528344285e-05
-0.0018973120622568097
-0.0010375279468986046
0.0009631235523002968
0.0023106698100251763
0.0005552772411688404
-0.0017457475547417414
-0.001324122652018006
0.0005525215228503846
0.00226933403524834
0.0011450009613183788
-0.001453641412985428
-0.0015556029907682917
0.00013640805676356078
0.00207918947127489
0.001630007385366597
-0.0010761080033569854
-0.001748503273060197
-0.0002686825360494398
0.0017760604562447539
