0.000172232394903486
-0.00011160659189746003
-0.0002521482261387052
-0.0003045068741893651
-0.0002824611276417188
-0.00018601098649576628
-9.231656366826955e-05
-4.2713633936065354e-05
-2.342360570687485e-05
-3.4446478980697995e-05
-4.8225070572976926e-05
-5.098078889143272e-05
-3.720219729915378e-05
-3.4446478980697995e-05
-3.995791561760957e-05
-4.8225070572976926e-05
-4.5469352254521147e-05
-3.4446478980697995e-05
-3.995791561760957e-05
-4.2713633936065354e-05
-3.995791561760957e-05
-3.720219729915378e-05
-1.7912169069963278e-05
-6.889295796140132e-06
-1.377859159228559e-06
-9.64501411459592e-06
-9.64501411459592e-06
-6.889295796140132e-06
-1.377859159228559e-06
4.133577477683014e-06
4.133577477683014e-06
4.133577477683014e-06
9.64501411459459e-06
2.066788738841773e-05
2.066788738841773e-05
1.7912169069961946e-05
2.3423605706873515e-05
4.271363393606403e-05
5.373650720988717e-05
5.649222552834297e-05
5.373650720988717e-05
5.9247943846798756e-05
6.751509880216611e-05
8.129369039444505e-05
9.782800030517979e-05
9.782800030517979e-05
0.00010333943694209132
0.00010885087357900291
0.00011711802853437029
0.00012262946517128183
0.00011987374685282605
0.00011987374685282605
0.0001253851834897376
0.00012814090180819342
0.00013089662012664922
0.00012262946517128183
0.00011160659189745871
0.00011711802853437029
0.00011987374685282605
0.00011160659189745871
0.00010058371862363556
9.23165636682682e-05
8.68051270313566e-05
7.578225375753347e-05
6.751509880216611e-05
4.271363393606403e-05
1.2400732433050376e-05
-4.133577477684346e-06
-1.7912169069963278e-05
-3.4446478980697995e-05
-5.098078889143272e-05
-7.027081712062322e-05
-7.85379720759906e-05
-8.129369039444639e-05
-8.680512703135793e-05
-9.507228198672531e-05
-9.78280003051811e-05
-0.00010058371862363688
-9.231656366826955e-05
-8.404940871290214e-05
-8.129369039444639e-05
-8.129369039444639e-05
-7.85379720759906e-05
-6.751509880216745e-05
-5.6492225528344285e-05
-5.3736507209888505e-05
-5.6492225528344285e-05
-5.3736507209888505e-05
-5.3736507209888505e-05
-5.098078889143272e-05
-3.995791561760957e-05
-3.4446478980697995e-05
-3.169076066224221e-05
-3.169076066224221e-05
-2.342360570687485e-05
-1.240073243305171e-05
-1.240073243305171e-05
-1.7912169069963278e-05
-1.7912169069963278e-05
-9.64501411459592e-06
1.3778591592272275e-06
-4.133577477684346e-06
-6.889295796140132e-06
1.3778591592272275e-06
4.133577477683014e-06
1.3778591592272275e-06
-9.64501411459592e-06
-1.5156450751507488e-05
-1.5156450751507488e-05
-1.5156450751507488e-05
-2.066788738841907e-05
-3.169076066224221e-05
-4.2713633936065354e-05
-4.5469352254521147e-05
-3.995791561760957e-05
-3.720219729915378e-05
-4.8225070572976926e-05
-6.200366216525588e-05
-6.475938048371164e-05
-6.475938048371164e-05
-6.475938048371164e-05
-7.302653543907902e-05
-7.85379720759906e-05
-9.231656366826955e-05
-8.680512703135793e-05
-7.85379720759906e-05
-8.680512703135793e-05
-9.507228198672531e-05
-9.78280003051811e-05
-9.507228198672531e-05
-9.231656366826955e-05
-9.507228198672531e-05
-0.00010333943694209268
-0.00010885087357900426
-0.00010333943694209268
-0.00010058371862363688
-0.00010333943694209268
-0.00010333943694209268
-0.00010609515526054846
-0.00010609515526054846
-9.78280003051811e-05
-0.00010333943694209268
-0.00011436231021591582
-0.00011436231021591582
-0.00010885087357900426
-0.00010885087357900426
-0.00011160659189746003
-0.00010885087357900426
-0.0001171180285343716
-0.0001171180285343716
-0.0001171180285343716
-0.0001198737468528274
-0.0001198737468528274
-0.0001198737468528274
-0.0001198737468528274
-0.00011436231021591582
-0.00011160659189746003
-0.00011160659189746003
-0.0001171180285343716
-0.0001198737468528274
-0.0001198737468528274
-0.0001171180285343716
-0.0001226294651712832
-0.0001226294651712832
-0.0001198737468528274
-0.0001171180285343716
-0.00011160659189746003
-0.0001226294651712832
-0.0001336523384451063
-0.00012814090180819475
-0.0001171180285343716
-0.0001171180285343716
-0.0001198737468528274
-0.00012538518348973897
-0.0001198737468528274
-0.00010333943694209268
-9.231656366826955e-05
-8.404940871290214e-05
-7.302653543907902e-05
-6.751509880216745e-05
-6.751509880216745e-05
-5.6492225528344285e-05
-4.8225070572976926e-05
-3.4446478980697995e-05
4.133577477683014e-06
4.82250705729756e-05
5.649222552834297e-05
3.444647898069667e-05
4.133577477683014e-06
-1.7912169069963278e-05
-2.066788738841907e-05
-1.5156450751507488e-05
-9.64501411459592e-06
-1.7912169069963278e-05
-3.720219729915378e-05
-4.5469352254521147e-05
-5.6492225528344285e-05
-8.129369039444639e-05
-0.00010058371862363688
-0.00011436231021591582
-0.0001171180285343716
-0.0001198737468528274
-0.00012538518348973897
-0.00012814090180819475
-0.0001336523384451063
-0.0001336523384451063
-0.00012814090180819475
-0.0001171180285343716
-0.0001226294651712832
-0.0001198737468528274
-0.0001198737468528274
-0.00010885087357900426
-9.78280003051811e-05
-8.956084534981374e-05
-5.098078889143272e-05
0.00013089662012664922
0.00042300276188296266
0.0007040860303654528
0.000908009185931181
0.001037527946898603
0.0009107649042496368
0.0005718115510795751
0.00018601098649576498
-0.00010885087357900426
-0.0002824611276417188
-0.00036237695887693665
-0.0003348197756923787
-0.00023836963454642628
-0.00013089662012665053
-7.027081712062322e-05
-5.6492225528344285e-05
-5.3736507209888505e-05
-5.3736507209888505e-05
-5.6492225528344285e-05
-5.098078889143272e-05
-4.5469352254521147e-05
-4.5469352254521147e-05
-3.720219729915378e-05
-3.995791561760957e-05
-4.5469352254521147e-05
-4.5469352254521147e-05
-4.2713633936065354e-05
-3.169076066224221e-05
-2.8935042343786426e-05
-2.8935042343786426e-05
-3.4446478980697995e-05
-3.4446478980697995e-05
-2.342360570687485e-05
-1.5156450751507488e-05
-1.7912169069963278e-05
-2.066788738841907e-05
-1.5156450751507488e-05
-9.64501411459592e-06
-4.133577477684346e-06
-1.377859159228559e-06
1.3778591592272275e-06
6.8892957961388014e-06
1.5156450751506162e-05
2.3423605706873515e-05
2.6179324025329308e-05
2.3423605706873515e-05
3.169076066224089e-05
3.720219729915245e-05
4.546935225451981e-05
5.649222552834297e-05
5.649222552834297e-05
5.9247943846798756e-05
7.02708171206219e-05
7.853797207598924e-05
8.404940871290084e-05
8.404940871290084e-05
7.853797207598924e-05
8.956084534981241e-05
9.507228198672396e-05
9.507228198672396e-05
9.507228198672396e-05
9.782800030517979e-05
9.782800030517979e-05
0.00010058371862363556
0.00010333943694209132
9.507228198672396e-05
8.404940871290084e-05
7.578225375753347e-05
7.02708171206219e-05
6.200366216525454e-05
5.373650720988717e-05
3.444647898069667e-05
1.7912169069961946e-05
6.8892957961388014e-06
-4.133577477684346e-06
-2.342360570687485e-05
-5.3736507209888505e-05
-7.85379720759906e-05
-8.404940871290214e-05
-9.231656366826955e-05
-0.00010609515526054846
-0.0001198737468528274
-0.00012814090180819475
-0.00012814090180819475
-0.0001171180285343716
-0.0001171180285343716
-0.0001171180285343716
-0.00010885087357900426
-9.78280003051811e-05
-9.231656366826955e-05
-9.507228198672531e-05
-8.680512703135793e-05
-7.57822537575348e-05
-5.9247943846800084e-05
-5.3736507209888505e-05
-5.3736507209888505e-05
-5.098078889143272e-05
-4.8225070572976926e-05
-4.5469352254521147e-05
-3.995791561760957e-05
-3.4446478980697995e-05
-3.720219729915378e-05
-3.995791561760957e-05
-2.6179324025330647e-05
-1.5156450751507488e-05
-1.240073243305171e-05
-1.7912169069963278e-05
-2.066788738841907e-05
-1.240073243305171e-05
-6.889295796140132e-06
-9.64501411459592e-06
-1.7912169069963278e-05
-2.066788738841907e-05
-2.342360570687485e-05
-2.6179324025330647e-05
-2.066788738841907e-05
-2.8935042343786426e-05
-4.8225070572976926e-05
-5.098078889143272e-05
-4.2713633936065354e-05
-3.720219729915378e-05
-4.5469352254521147e-05
-5.6492225528344285e-05
-6.200366216525588e-05
-5.6492225528344285e-05
-5.3736507209888505e-05
-6.475938048371164e-05
-7.302653543907902e-05
-7.302653543907902e-05
-7.302653543907902e-05
-7.85379720759906e-05
-8.404940871290214e-05
-8.956084534981374e-05
-8.956084534981374e-05
-8.680512703135793e-05
-8.680512703135793e-05
-8.956084534981374e-05
-9.507228198672531e-05
-9.78280003051811e-05
-9.78280003051811e-05
-9.507228198672531e-05
-9.78280003051811e-05
-0.00010609515526054846
-0.00011160659189746003
-0.00010885087357900426
-0.00010058371862363688
-9.507228198672531e-05
-9.507228198672531e-05
-0.00011436231021591582
-0.00010609515526054846
-0.00010058371862363688
-0.00010885087357900426
-0.0001171180285343716
-0.0001171180285343716
-0.00010885087357900426
-0.00011160659189746003
-0.00011160659189746003
-0.0001171180285343716
-0.0001198737468528274
-0.00011436231021591582
-0.00010885087357900426
-0.00010885087357900426
-0.0001198737468528274
-0.00012538518348973897
-0.00012538518348973897
-0.0001171180285343716
-0.0001171180285343716
-0.00012538518348973897
-0.00013089662012665053
-0.00012814090180819475
-0.0001226294651712832
-0.0001198737468528274
-0.00012538518348973897
-0.0001336523384451063
-0.0001336523384451063
-0.00012538518348973897
-0.0001171180285343716
-0.00012538518348973897
-0.00013089662012665053
-0.00012814090180819475
-0.0001226294651712832
-0.0001171180285343716
-0.0001198737468528274
-0.0001198737468528274
-0.0001171180285343716
-0.00010609515526054846
-9.231656366826955e-05
-8.680512703135793e-05
-8.404940871290214e-05
-8.404940871290214e-05
-7.57822537575348e-05
-6.751509880216745e-05
-5.3736507209888505e-05
-2.6179324025330647e-05
1.3778591592272275e-06
4.133577477683014e-06
-6.889295796140132e-06
-2.342360570687485e-05
-4.2713633936065354e-05
-5.6492225528344285e-05
-6.200366216525588e-05
-5.3736507209888505e-05
-5.3736507209888505e-05
-7.302653543907902e-05
-8.956084534981374e-05
-0.00010885087357900426
-0.0001198737468528274
-0.0001198737468528274
-0.0001226294651712832
-0.0001336523384451063
-0.00014467521171892948
-0.00014191949340047367
-0.0001336523384451063
-0.0001336523384451063
-0.0001391637750820179
-0.0001364080567635621
-0.00013089662012665053
-0.0001336523384451063
-0.00013089662012665053
-0.0001226294651712832
-0.00010609515526054846
-2.8935042343786426e-05
0.0001832552681773092
0.0004726056916151668
0.000717864621957732
0.0008942305943389022
0.000985169298847943
0.0007922690165560381
0.00042575848020141833
5.373650720988717e-05
-0.0002080567330434125
-0.0003568655222400251
-0.0004202470435645082
-0.00037615555046921565
-0.0002824611276417188
-0.00017223239490348733
-9.507228198672531e-05
-6.475938048371164e-05
-6.200366216525588e-05
-7.302653543907902e-05
-8.129369039444639e-05
-8.129369039444639e-05
-7.57822537575348e-05
-7.302653543907902e-05
-7.57822537575348e-05
-7.85379720759906e-05
-7.027081712062322e-05
-6.751509880216745e-05
-6.751509880216745e-05
-7.302653543907902e-05
-7.302653543907902e-05
-6.475938048371164e-05
-4.5469352254521147e-05
-3.995791561760957e-05
-4.2713633936065354e-05
-3.995791561760957e-05
-3.720219729915378e-05
-2.8935042343786426e-05
-2.342360570687485e-05
-2.066788738841907e-05
-2.6179324025330647e-05
-2.342360570687485e-05
-9.64501411459592e-06
1.3778591592272275e-06
4.133577477683014e-06
1.3778591592272275e-06
4.133577477683014e-06
1.5156450751506162e-05
2.3423605706873515e-05
2.3423605706873515e-05
2.6179324025329308e-05
2.6179324025329308e-05
3.720219729915245e-05
5.098078889143139e-05
5.373650720988717e-05
5.649222552834297e-05
5.373650720988717e-05
5.9247943846798756e-05
7.30265354390777e-05
8.129369039444505e-05
7.578225375753347e-05
8.129369039444505e-05
9.23165636682682e-05
0.00010058371862363556
9.507228198672396e-05
8.956084534981241e-05
8.68051270313566e-05
9.507228198672396e-05
9.23165636682682e-05
7.853797207598924e-05
6.475938048371032e-05
5.098078889143139e-05
4.546935225451981e-05
3.169076066224089e-05
1.2400732433050376e-05
-4.133577477684346e-06
-2.066788738841907e-05
-2.8935042343786426e-05
-4.2713633936065354e-05
-6.200366216525588e-05
-8.680512703135793e-05
-0.00010885087357900426
-0.0001198737468528274
-0.0001198737468528274
-0.00012538518348973897
-0.0001364080567635621
-0.00014191949340047367
-0.0001391637750820179
-0.0001336523384451063
-0.00012814090180819475
-0.00013089662012665053
-0.00013089662012665053
-0.0001226294651712832
-0.00011160659189746003
-0.00010609515526054846
-0.00010058371862363688
-0.00010058371862363688
-9.78280003051811e-05
-8.404940871290214e-05
-7.57822537575348e-05
-7.302653543907902e-05
-7.57822537575348e-05
-7.302653543907902e-05
-6.475938048371164e-05
-5.6492225528344285e-05
-5.3736507209888505e-05
-5.9247943846800084e-05
-5.9247943846800084e-05
-5.6492225528344285e-05
-4.8225070572976926e-05
-4.2713633936065354e-05
-4.5469352254521147e-05
-4.8225070572976926e-05
-4.5469352254521147e-05
-3.995791561760957e-05
-3.720219729915378e-05
-4.2713633936065354e-05
-4.8225070572976926e-05
-5.3736507209888505e-05
-5.3736507209888505e-05
-5.6492225528344285e-05
-7.027081712062322e-05
-7.85379720759906e-05
-8.404940871290214e-05
-8.404940871290214e-05
-8.956084534981374e-05
-9.78280003051811e-05
-0.00010058371862363688
-9.78280003051811e-05
-9.78280003051811e-05
-0.00010609515526054846
-0.0001171180285343716
-0.0001198737468528274
-0.0001226294651712832
-0.0001198737468528274
-0.0001226294651712832
-0.0001336523384451063
-0.0001364080567635621
-0.0001364080567635621
-0.0001336523384451063
-0.0001336523384451063
-0.00014191949340047367
-0.00014743093003738526
-0.000150186648355841
-0.00014191949340047367
-0.0001391637750820179
-0.0001391637750820179
-0.0001391637750820179
-0.0001391637750820179
-0.0001391637750820179
-0.00014191949340047367
-0.00014191949340047367
-0.00014467521171892948
-0.00014743093003738526
-0.00014191949340047367
-0.00014191949340047367
-0.00014467521171892948
-0.00014743093003738526
-0.000150186648355841
-0.00014467521171892948
-0.00014191949340047367
-0.00014191949340047367
-0.00014743093003738526
-0.000150186648355841
-0.00015294236667429682
-0.000150186648355841
-0.00015294236667429682
-0.00016396523994811996
-0.00016947667658503157
-0.00017223239490348733
-0.00016396523994811996
-0.0001584538033112084
-0.0001584538033112084
-0.00016672095826657574
-0.00016947667658503157
-0.00016396523994811996
-0.0001584538033112084
-0.00016396523994811996
-0.00016947667658503157
-0.00016947667658503157
-0.00016396523994811996
-0.0001612095216296642
-0.00016672095826657574
-0.00017498811322194308
-0.00017498811322194308
-0.00016947667658503157
-0.00016672095826657574
-0.00016672095826657574
-0.00016396523994811996
-0.00017223239490348733
-0.00017223239490348733
-0.0001584538033112084
-0.0001612095216296642
-0.0001584538033112084
-0.00014743093003738526
-0.0001364080567635621
-0.00012538518348973897
-0.00012538518348973897
-0.0001226294651712832
-0.0001171180285343716
-0.00010609515526054846
-8.404940871290214e-05
-5.098078889143272e-05
-3.4446478980697995e-05
-3.720219729915378e-05
-4.8225070572976926e-05
-6.475938048371164e-05
-7.85379720759906e-05
-9.507228198672531e-05
-0.00010058371862363688
-9.231656366826955e-05
-8.680512703135793e-05
-9.507228198672531e-05
-0.0001171180285343716
-0.0001391637750820179
-0.00015294236667429682
-0.00015294236667429682
-0.00015569808499275262
-0.00016672095826657574
-0.00017223239490348733
-0.00016947667658503157
-0.0001612095216296642
-0.0001612095216296642
-0.00016947667658503157
-0.0001777438315403989
-0.00017498811322194308
-0.00016672095826657574
-0.0001612095216296642
-0.0001612095216296642
-0.00015294236667429682
-0.0001364080567635621
-5.6492225528344285e-05
0.0001694766765850302
0.0004726056916151668
0.000717864621957732
0.0008942305943389022
0.0009934364538033101
0.0008280933546959632
0.0004533156633859763
5.9247943846798756e-05
-0.0002080567330434125
-0.0003568655222400251
-0.00040922417029068495
-0.00037615555046921565
-0.00027970540932326305
-0.00018049954985885472
-0.00011436231021591582
-8.680512703135793e-05
-8.956084534981374e-05
-0.00010333943694209268
-9.78280003051811e-05
-8.956084534981374e-05
-8.680512703135793e-05
-8.404940871290214e-05
-7.85379720759906e-05
-8.680512703135793e-05
-8.956084534981374e-05
-6.475938048371164e-05
-6.751509880216745e-05
-7.57822537575348e-05
-7.57822537575348e-05
-6.751509880216745e-05
-6.475938048371164e-05
-6.200366216525588e-05
-6.200366216525588e-05
-6.475938048371164e-05
-5.6492225528344285e-05
-4.5469352254521147e-05
-4.5469352254521147e-05
-4.5469352254521147e-05
-3.995791561760957e-05
-2.8935042343786426e-05
-1.7912169069963278e-05
-1.5156450751507488e-05
-2.066788738841907e-05
-1.7912169069963278e-05
-6.889295796140132e-06
4.133577477683014e-06
6.8892957961388014e-06
9.64501411459459e-06
1.2400732433050376e-05
2.3423605706873515e-05
3.444647898069667e-05
4.546935225451981e-05
4.82250705729756e-05
4.82250705729756e-05
5.373650720988717e-05
6.475938048371032e-05
7.578225375753347e-05
7.853797207598924e-05
7.853797207598924e-05
8.404940871290084e-05
9.507228198672396e-05
9.782800030517979e-05
9.782800030517979e-05
9.507228198672396e-05
9.23165636682682e-05
9.507228198672396e-05
9.507228198672396e-05
8.956084534981241e-05
7.578225375753347e-05
6.475938048371032e-05
5.9247943846798756e-05
4.82250705729756e-05
3.444647898069667e-05
2.066788738841773e-05
1.3778591592272275e-06
-1.240073243305171e-05
-2.342360570687485e-05
-3.995791561760957e-05
-6.751509880216745e-05
-8.956084534981374e-05
-0.00010333943694209268
-0.00010885087357900426
-0.00010885087357900426
-0.0001171180285343716
-0.00013089662012665053
-0.0001336523384451063
-0.00012814090180819475
-0.00012538518348973897
-0.00012538518348973897
-0.00013089662012665053
-0.00012814090180819475
-0.0001226294651712832
-0.0001198737468528274
-0.0001226294651712832
-0.0001198737468528274
-0.00010885087357900426
-9.78280003051811e-05
-9.507228198672531e-05
-9.507228198672531e-05
-9.78280003051811e-05
-8.956084534981374e-05
-8.404940871290214e-05
-8.129369039444639e-05
-8.129369039444639e-05
-7.57822537575348e-05
-7.027081712062322e-05
-5.9247943846800084e-05
-5.3736507209888505e-05
-5.9247943846800084e-05
-6.475938048371164e-05
-6.475938048371164e-05
-5.6492225528344285e-05
-5.098078889143272e-05
-5.6492225528344285e-05
-6.475938048371164e-05
-6.475938048371164e-05
-6.200366216525588e-05
-6.751509880216745e-05
-7.027081712062322e-05
-7.57822537575348e-05
-8.404940871290214e-05
-8.404940871290214e-05
-8.129369039444639e-05
-8.680512703135793e-05
-9.78280003051811e-05
-0.00010885087357900426
-0.00010885087357900426
-0.00010609515526054846
-0.00010609515526054846
-0.00011436231021591582
-0.0001226294651712832
-0.00012538518348973897
-0.00012538518348973897
-0.0001226294651712832
-0.00012814090180819475
-0.0001336523384451063
-0.0001364080567635621
-0.0001364080567635621
-0.00013089662012665053
-0.0001364080567635621
-0.00014467521171892948
-0.00014743093003738526
-0.00014191949340047367
-0.0001391637750820179
-0.0001391637750820179
-0.00014743093003738526
-0.000150186648355841
-0.000150186648355841
-0.00014743093003738526
-0.000150186648355841
-0.0001584538033112084
-0.00016396523994811996
-0.00015569808499275262
-0.00014743093003738526
-0.00014743093003738526
-0.00015569808499275262
-0.0001584538033112084
-0.000150186648355841
-0.00014743093003738526
-0.00015294236667429682
-0.0001584538033112084
-0.0001612095216296642
-0.0001584538033112084
-0.00015569808499275262
-0.0001584538033112084
-0.0001612095216296642
-0.00016396523994811996
-0.0001584538033112084
-0.00015294236667429682
-0.00015569808499275262
-0.0001612095216296642
-0.0001612095216296642
-0.0001612095216296642
-0.00015569808499275262
-0.00015569808499275262
-0.0001584538033112084
-0.0001612095216296642
-0.0001584538033112084
-0.00015569808499275262
-0.0001584538033112084
-0.00016947667658503157
-0.00016947667658503157
-0.00016672095826657574
-0.0001612095216296642
-0.00015569808499275262
-0.0001584538033112084
-0.00016396523994811996
-0.00016396523994811996
-0.00015569808499275262
-0.00015294236667429682
-0.00015569808499275262
-0.0001612095216296642
-0.00016672095826657574
-0.00016396523994811996
-0.0001584538033112084
-0.0001612095216296642
-0.00016947667658503157
-0.00016672095826657574
-0.0001612095216296642
-0.000150186648355841
-0.00014467521171892948
-0.00014743093003738526
-0.00014743093003738526
-0.0001364080567635621
-0.0001171180285343716
-0.00011160659189746003
-0.00011160659189746003
-0.00011160659189746003
-0.00010058371862363688
-6.200366216525588e-05
-2.8935042343786426e-05
-2.6179324025330647e-05
-5.098078889143272e-05
-7.302653543907902e-05
-8.129369039444639e-05
-9.231656366826955e-05
-9.78280003051811e-05
-0.00010609515526054846
-0.00010058371862363688
-9.507228198672531e-05
-0.00010885087357900426
-0.0001336523384451063
-0.00016947667658503157
-0.00016396523994811996
-0.0001612095216296642
-0.00016672095826657574
-0.00017498811322194308
-0.0001777438315403989
-0.00017498811322194308
-0.00017223239490348733
-0.00016947667658503157
-0.00016947667658503157
-0.00016947667658503157
-0.00016672095826657574
-0.00015294236667429682
-0.00014467521171892948
-0.0001391637750820179
-0.0001171180285343716
1.7912169069961946e-05
0.00029072828259708476
0.0005800787060349425
0.0007867575799191265
0.000949344960708018
0.0009465892423895617
0.0006627502555886161
0.00026041538109407124
-8.680512703135793e-05
-0.00029348400091554195
-0.0003954455786984061
-0.00040095701533531767
-0.00032379690241855563
-0.0002108124513618684
-0.0001336523384451063
-9.231656366826955e-05
-8.129369039444639e-05
-8.129369039444639e-05
-8.129369039444639e-05
-8.956084534981374e-05
-9.78280003051811e-05
-9.231656366826955e-05
-8.404940871290214e-05
-7.85379720759906e-05
-8.129369039444639e-05
-8.404940871290214e-05
-8.404940871290214e-05
-7.302653543907902e-05
-6.475938048371164e-05
-7.027081712062322e-05
-7.027081712062322e-05
-6.475938048371164e-05
-5.9247943846800084e-05
-5.3736507209888505e-05
-4.8225070572976926e-05
-5.098078889143272e-05
-4.8225070572976926e-05
-3.995791561760957e-05
-3.169076066224221e-05
-2.6179324025330647e-05
-2.6179324025330647e-05
-2.6179324025330647e-05
-1.5156450751507488e-05
-4.133577477684346e-06
1.3778591592272275e-06
1.3778591592272275e-06
4.133577477683014e-06
1.7912169069961946e-05
2.8935042343785094e-05
3.169076066224089e-05
4.271363393606403e-05
5.098078889143139e-05
5.649222552834297e-05
6.200366216525454e-05
6.200366216525454e-05
6.751509880216611e-05
7.853797207598924e-05
8.956084534981241e-05
9.782800030517979e-05
0.00010609515526054714
0.00010885087357900291
0.00011160659189745871
0.00011711802853437029
0.0001253851834897376
0.0001253851834897376
0.00012262946517128183
0.00011987374685282605
0.00012262946517128183
0.00012262946517128183
0.00011436231021591448
0.00010058371862363556
8.68051270313566e-05
8.129369039444505e-05
7.853797207598924e-05
5.9247943846798756e-05
3.720219729915245e-05
1.2400732433050376e-05
-6.889295796140132e-06
-2.066788738841907e-05
-3.720219729915378e-05
-5.3736507209888505e-05
-7.027081712062322e-05
-8.129369039444639e-05
-8.404940871290214e-05
-8.956084534981374e-05
-0.00010058371862363688
-0.00010333943694209268
-0.00010609515526054846
-0.00010058371862363688
-0.00010609515526054846
-0.00011160659189746003
-0.00011436231021591582
-0.00010885087357900426
-0.00010333943694209268
-9.507228198672531e-05
-9.78280003051811e-05
-9.78280003051811e-05
-9.231656366826955e-05
-8.680512703135793e-05
-7.85379720759906e-05
-7.85379720759906e-05
-8.129369039444639e-05
-8.129369039444639e-05
-7.57822537575348e-05
-6.200366216525588e-05
-5.9247943846800084e-05
-6.200366216525588e-05
-6.200366216525588e-05
-5.6492225528344285e-05
-5.3736507209888505e-05
-5.6492225528344285e-05
-5.3736507209888505e-05
-5.3736507209888505e-05
-5.9247943846800084e-05
-5.3736507209888505e-05
-5.6492225528344285e-05
-6.751509880216745e-05
-6.475938048371164e-05
-6.200366216525588e-05
-6.751509880216745e-05
-7.57822537575348e-05
-8.129369039444639e-05
-8.956084534981374e-05
-8.680512703135793e-05
-8.129369039444639e-05
-8.956084534981374e-05
-0.00010333943694209268
-0.00010885087357900426
-0.00010885087357900426
-0.00011160659189746003
-0.00011436231021591582
-0.0001226294651712832
-0.00012814090180819475
-0.00012814090180819475
-0.00012538518348973897
-0.00012814090180819475
-0.0001336523384451063
-0.0001364080567635621
-0.00014467521171892948
-0.00014191949340047367
-0.0001364080567635621
-0.0001391637750820179
-0.00014467521171892948
-0.00014467521171892948
-0.0001391637750820179
-0.0001391637750820179
-0.00014191949340047367
-0.000150186648355841
-0.00015569808499275262
-0.000150186648355841
-0.00014467521171892948
-0.000150186648355841
-0.0001584538033112084
-0.0001584538033112084
-0.00015294236667429682
-0.000150186648355841
-0.00015294236667429682
-0.0001612095216296642
-0.00016396523994811996
-0.00015569808499275262
-0.000150186648355841
-0.00014743093003738526
-0.00015294236667429682
-0.0001584538033112084
-0.00015569808499275262
-0.000150186648355841
-0.00014743093003738526
-0.00015294236667429682
-0.00016396523994811996
-0.00016672095826657574
-0.0001612095216296642
-0.00015294236667429682
-0.000150186648355841
-0.00015294236667429682
-0.000150186648355841
-0.00014743093003738526
-0.00014191949340047367
-0.00014467521171892948
-0.000150186648355841
-0.00015294236667429682
-0.000150186648355841
-0.00014191949340047367
-0.000150186648355841
-0.0001612095216296642
-0.00015569808499275262
-0.000150186648355841
-0.000150186648355841
-0.000150186648355841
-0.00015294236667429682
-0.00015294236667429682
-0.00014743093003738526
-0.00014743093003738526
-0.000150186648355841
-0.00015294236667429682
-0.00015294236667429682
-0.00015294236667429682
-0.00015569808499275262
-0.0001612095216296642
-0.00016947667658503157
-0.00017223239490348733
-0.00016396523994811996
-0.0001584538033112084
-0.0001584538033112084
-0.0001612095216296642
-0.00016396523994811996
-0.00015569808499275262
-0.00014467521171892948
-0.0001391637750820179
-0.00014191949340047367
-0.0001364080567635621
-0.00012538518348973897
-0.0001171180285343716
-0.00010609515526054846
-0.00010885087357900426
-0.00010058371862363688
-6.475938048371164e-05
-2.066788738841907e-05
-1.240073243305171e-05
-3.4446478980697995e-05
-6.200366216525588e-05
-8.404940871290214e-05
-8.680512703135793e-05
-8.680512703135793e-05
-8.956084534981374e-05
-9.507228198672531e-05
-9.78280003051811e-05
-0.00010885087357900426
-0.00012538518348973897
-0.00014467521171892948
-0.0001612095216296642
-0.00016672095826657574
-0.00016396523994811996
-0.00016396523994811996
-0.00016672095826657574
-0.00017223239490348733
-0.00016672095826657574
-0.00016396523994811996
-0.0001612095216296642
-0.00016396523994811996
-0.00016396523994811996
-0.00016672095826657574
-0.00016396523994811996
-0.000150186648355841
-0.0001364080567635621
-0.0001171180285343716
6.8892957961388014e-06
0.00026592681773098274
0.0007922690165560381
0.0009548563973449294
0.0009328106507972832
0.0006351930724040583
0.00024663678950179223
-9.78280003051811e-05
-0.0003127740291447324
-0.00043402563515678713
-0.00044504850843061025
-0.0003596212405584808
-0.00024388107118333775
-0.00014743093003738526
-0.00010333943694209268
-9.507228198672531e-05
-9.231656366826955e-05
-8.956084534981374e-05
-8.956084534981374e-05
-9.507228198672531e-05
-9.231656366826955e-05
-8.404940871290214e-05
-7.57822537575348e-05
-7.027081712062322e-05
-7.302653543907902e-05
-7.57822537575348e-05
-7.027081712062322e-05
-6.475938048371164e-05
-6.475938048371164e-05
-6.475938048371164e-05
-6.475938048371164e-05
-6.200366216525588e-05
-5.6492225528344285e-05
-4.8225070572976926e-05
-4.5469352254521147e-05
-4.8225070572976926e-05
-4.2713633936065354e-05
-3.4446478980697995e-05
-2.066788738841907e-05
-1.7912169069963278e-05
-1.7912169069963278e-05
-1.240073243305171e-05
-4.133577477684346e-06
6.8892957961388014e-06
1.2400732433050376e-05
1.5156450751506162e-05
2.3423605706873515e-05
3.720219729915245e-05
4.546935225451981e-05
5.373650720988717e-05
5.649222552834297e-05
5.649222552834297e-05
6.475938048371032e-05
8.404940871290084e-05
9.782800030517979e-05
0.00010333943694209132
0.00010885087357900291
0.00011711802853437029
0.0001253851834897376
0.00013365233844510492
0.00013916377508201656
0.00013640805676356078
0.00013916377508201656
0.00014743093003738393
0.00015294236667429551
0.00015294236667429551
0.00014467521171892812
0.00013916377508201656
0.00014191949340047234
0.00013365233844510492
0.00012262946517128183
0.00010885087357900291
9.507228198672396e-05
8.68051270313566e-05
7.30265354390777e-05
4.82250705729756e-05
2.8935042343785094e-05
9.64501411459459e-06
-1.377859159228559e-06
-1.7912169069963278e-05
-3.169076066224221e-05
-4.2713633936065354e-05
-4.8225070572976926e-05
-4.8225070572976926e-05
-5.3736507209888505e-05
-6.751509880216745e-05
-7.85379720759906e-05
-7.85379720759906e-05
-7.57822537575348e-05
-7.302653543907902e-05
-7.85379720759906e-05
-8.680512703135793e-05
-9.507228198672531e-05
-8.680512703135793e-05
-8.404940871290214e-05
-8.404940871290214e-05
-8.680512703135793e-05
-8.680512703135793e-05
-7.57822537575348e-05
-7.027081712062322e-05
-6.751509880216745e-05
-6.475938048371164e-05
-5.9247943846800084e-05
-5.3736507209888505e-05
-4.5469352254521147e-05
-4.2713633936065354e-05
-4.5469352254521147e-05
-4.8225070572976926e-05
-4.2713633936065354e-05
-3.720219729915378e-05
-3.4446478980697995e-05
-3.4446478980697995e-05
-3.995791561760957e-05
-3.995791561760957e-05
-3.169076066224221e-05
-2.8935042343786426e-05
-3.4446478980697995e-05
-4.5469352254521147e-05
-5.098078889143272e-05
-4.5469352254521147e-05
-4.2713633936065354e-05
-5.098078889143272e-05
-6.475938048371164e-05
-7.027081712062322e-05
-7.027081712062322e-05
-6.751509880216745e-05
-7.302653543907902e-05
-7.85379720759906e-05
-8.680512703135793e-05
-8.680512703135793e-05
-8.129369039444639e-05
-8.680512703135793e-05
-9.231656366826955e-05
-0.00010333943694209268
-9.78280003051811e-05
-9.78280003051811e-05
-0.00010333943694209268
-0.0001171180285343716
-0.0001198737468528274
-0.00011436231021591582
-0.00010885087357900426
-0.0001171180285343716
-0.00012538518348973897
-0.00012538518348973897
-0.0001171180285343716
-0.0001171180285343716
-0.0001198737468528274
-0.00012814090180819475
-0.00013089662012665053
-0.0001226294651712832
-0.0001198737468528274
-0.0001226294651712832
-0.0001336523384451063
-0.0001391637750820179
-0.0001364080567635621
-0.00012814090180819475
-0.00012814090180819475
-0.0001336523384451063
-0.0001336523384451063
-0.00013089662012665053
-0.00012538518348973897
-0.00012538518348973897
-0.0001364080567635621
-0.00014467521171892948
-0.0001364080567635621
-0.00013089662012665053
-0.00012814090180819475
-0.00013089662012665053
-0.0001336523384451063
-0.0001336523384451063
-0.0001336523384451063
-0.00013089662012665053
-0.00013089662012665053
-0.0001391637750820179
-0.00014467521171892948
-0.0001364080567635621
-0.00013089662012665053
-0.0001336523384451063
-0.0001364080567635621
-0.0001391637750820179
-0.0001391637750820179
-0.0001364080567635621
-0.0001336523384451063
-0.00014191949340047367
-0.00014743093003738526
-0.00014467521171892948
-0.0001391637750820179
-0.0001391637750820179
-0.00014467521171892948
-0.00014467521171892948
-0.00014191949340047367
-0.0001364080567635621
-0.00013089662012665053
-0.0001364080567635621
-0.00014467521171892948
-0.00014743093003738526
-0.0001391637750820179
-0.0001336523384451063
-0.0001364080567635621
-0.00014467521171892948
-0.0001391637750820179
-0.00012814090180819475
-0.0001226294651712832
-0.0001198737468528274
-0.00011160659189746003
-0.00010058371862363688
-8.956084534981374e-05
-8.680512703135793e-05
-8.404940871290214e-05
-5.9247943846800084e-05
-2.342360570687485e-05
-1.377859159228559e-06
-6.889295796140132e-06
-3.169076066224221e-05
-5.3736507209888505e-05
-6.200366216525588e-05
-6.475938048371164e-05
-6.751509880216745e-05
-6.751509880216745e-05
-6.751509880216745e-05
-7.302653543907902e-05
-9.231656366826955e-05
-0.00010609515526054846
-0.0001198737468528274
-0.00013089662012665053
-0.00013089662012665053
-0.00012538518348973897
-0.00012538518348973897
-0.0001336523384451063
-0.00014191949340047367
-0.00014191949340047367
-0.0001336523384451063
-0.00012814090180819475
-0.00013089662012665053
-0.0001336523384451063
-0.0001364080567635621
-0.00012538518348973897
-0.00010609515526054846
-8.129369039444639e-05
-4.133577477684346e-06
0.00020530101472495543
0.0005029185931181804
0.0007509332417792012
0.0009162763408865484
0.000998947890440222
0.0008088033264667726
0.00041749132524605104
4.271363393606403e-05
-0.00019152242313267784
-0.0003403312123292903
-0.00040371273365377345
-0.0003568655222400251
-0.0002521482261387052
-0.0001364080567635621
-7.302653543907902e-05
-5.098078889143272e-05
-5.3736507209888505e-05
-5.6492225528344285e-05
-5.3736507209888505e-05
-5.6492225528344285e-05
-6.200366216525588e-05
-5.9247943846800084e-05
-5.098078889143272e-05
-3.995791561760957e-05
-3.720219729915378e-05
-4.5469352254521147e-05
-3.720219729915378e-05
-3.169076066224221e-05
-3.169076066224221e-05
-3.169076066224221e-05
-3.169076066224221e-05
-2.6179324025330647e-05
-1.5156450751507488e-05
-6.889295796140132e-06
-6.889295796140132e-06
-6.889295796140132e-06
-1.377859159228559e-06
6.8892957961388014e-06
1.2400732433050376e-05
1.7912169069961946e-05
1.5156450751506162e-05
1.7912169069961946e-05
2.8935042343785094e-05
3.9957915617608246e-05
4.271363393606403e-05
4.271363393606403e-05
4.82250705729756e-05
6.200366216525454e-05
7.578225375753347e-05
8.404940871290084e-05
8.68051270313566e-05
8.956084534981241e-05
0.00010058371862363556
0.00011436231021591448
0.00012262946517128183
0.00012262946517128183
0.00012814090180819342
0.00015294236667429551
0.00017498811322194178
0.00017498811322194178
0.0001694766765850302
0.000172232394903486
0.00017498811322194178
0.0001832552681773092
0.00018601098649576498
0.00018601098649576498
0.00018049954985885336
0.00017774383154039756
0.00018049954985885336
0.00018601098649576498
0.00018049954985885336
0.00016120952162966288
0.00015018664835583973
0.00014191949340047234
0.00012814090180819342
0.00010885087357900291
8.404940871290084e-05
6.200366216525454e-05
4.546935225451981e-05
3.9957915617608246e-05
2.6179324025329308e-05
6.8892957961388014e-06
-6.889295796140132e-06
-1.5156450751507488e-05
-2.066788738841907e-05
-2.8935042343786426e-05
-3.995791561760957e-05
-5.3736507209888505e-05
-5.9247943846800084e-05
-5.6492225528344285e-05
-5.9247943846800084e-05
-8.680512703135793e-05
-8.680512703135793e-05
-8.404940871290214e-05
-7.57822537575348e-05
-7.85379720759906e-05
-8.680512703135793e-05
-8.680512703135793e-05
-7.85379720759906e-05
-7.302653543907902e-05
-7.027081712062322e-05
-7.302653543907902e-05
-7.57822537575348e-05
-7.027081712062322e-05
-5.9247943846800084e-05
-5.3736507209888505e-05
-5.9247943846800084e-05
-5.9247943846800084e-05
-5.3736507209888505e-05
-4.5469352254521147e-05
-4.2713633936065354e-05
-4.5469352254521147e-05
-5.098078889143272e-05
-5.098078889143272e-05
-4.5469352254521147e-05
-4.5469352254521147e-05
-4.8225070572976926e-05
-5.098078889143272e-05
-5.098078889143272e-05
-4.5469352254521147e-05
-4.2713633936065354e-05
-4.2713633936065354e-05
-5.3736507209888505e-05
-5.9247943846800084e-05
-5.6492225528344285e-05
-5.9247943846800084e-05
-6.751509880216745e-05
-7.85379720759906e-05
-7.85379720759906e-05
-7.85379720759906e-05
-7.57822537575348e-05
-8.129369039444639e-05
-8.956084534981374e-05
-9.231656366826955e-05
-8.680512703135793e-05
-8.404940871290214e-05
-8.680512703135793e-05
-9.78280003051811e-05
-0.00010333943694209268
-0.00010058371862363688
-9.507228198672531e-05
-9.507228198672531e-05
-0.00010333943694209268
-0.00010609515526054846
-0.00010609515526054846
-0.00010333943694209268
-0.00010609515526054846
-0.00011160659189746003
-0.00011436231021591582
-0.0001198737468528274
-0.0001171180285343716
-0.00011160659189746003
-0.00011160659189746003
-0.0001198737468528274
-0.0001226294651712832
-0.0001171180285343716
-0.0001198737468528274
-0.00012538518348973897
-0.0001226294651712832
-0.0001226294651712832
-0.0001171180285343716
-0.00011160659189746003
-0.00011436231021591582
-0.00012538518348973897
-0.0001226294651712832
-0.0001198737468528274
-0.0001226294651712832
-0.00012538518348973897
-0.00012814090180819475
-0.00012538518348973897
-0.0001226294651712832
-0.0001171180285343716
-0.0001198737468528274
-0.00012814090180819475
-0.00012814090180819475
-0.00012538518348973897
-0.0001198737468528274
-0.0001226294651712832
-0.00013089662012665053
-0.0001364080567635621
-0.00013089662012665053
-0.00012538518348973897
-0.00012538518348973897
-0.0001336523384451063
-0.0001336523384451063
-0.00012814090180819475
-0.0001226294651712832
-0.0001226294651712832
-0.00013089662012665053
-0.00013089662012665053
-0.00013089662012665053
-0.00012538518348973897
-0.00012538518348973897
-0.0001336523384451063
-0.0001336523384451063
-0.00012538518348973897
-0.0001198737468528274
-0.00012538518348973897
-0.00013089662012665053
-0.0001364080567635621
-0.0001336523384451063
-0.00012814090180819475
-0.0001226294651712832
-0.00012814090180819475
-0.0001364080567635621
-0.0001364080567635621
-0.0001226294651712832
-0.00011160659189746003
-0.00010885087357900426
-0.00010609515526054846
-9.507228198672531e-05
-8.404940871290214e-05
-7.302653543907902e-05
-6.751509880216745e-05
-4.8225070572976926e-05
-1.5156450751507488e-05
4.133577477683014e-06
4.133577477683014e-06
-1.7912169069963278e-05
-4.5469352254521147e-05
-6.751509880216745e-05
-7.302653543907902e-05
-4.8225070572976926e-05
-5.3736507209888505e-05
-7.027081712062322e-05
-8.956084534981374e-05
-0.00010609515526054846
-0.0001171180285343716
-0.00012538518348973897
-0.0001336523384451063
-0.0001336523384451063
-0.00013089662012665053
-0.0001336523384451063
-0.0001364080567635621
-0.0001364080567635621
-0.0001336523384451063
-0.0001336523384451063
-0.00013089662012665053
-0.00013089662012665053
-0.0001336523384451063
-0.00013089662012665053
-0.00010609515526054846
-7.302653543907902e-05
4.133577477683014e-06
0.0002135681696803228
0.0005001628747997245
0.0007481775234607456
0.00092178777752346
0.001007215045395589
0.0008363605096513305
0.0004670942549782553
8.129369039444505e-05
-0.00017498811322194308
-0.0003100183108262768
-0.0003651326771953924
-0.00032655262073701135
-0.00022459104295414727
-0.0001171180285343716
-5.3736507209888505e-05
-3.4446478980697995e-05
-4.2713633936065354e-05
-5.098078889143272e-05
-4.8225070572976926e-05
-4.8225070572976926e-05
-4.8225070572976926e-05
-4.8225070572976926e-05
-4.8225070572976926e-05
-3.995791561760957e-05
-2.8935042343786426e-05
-2.6179324025330647e-05
-3.169076066224221e-05
-3.169076066224221e-05
-2.8935042343786426e-05
-2.342360570687485e-05
-2.066788738841907e-05
-1.7912169069963278e-05
-1.5156450751507488e-05
-4.133577477684346e-06
1.3778591592272275e-06
4.133577477683014e-06
4.133577477683014e-06
4.133577477683014e-06
6.8892957961388014e-06
2.066788738841773e-05
2.8935042343785094e-05
3.444647898069667e-05
3.720219729915245e-05
4.271363393606403e-05
6.475938048371032e-05
7.02708171206219e-05
7.02708171206219e-05
7.30265354390777e-05
8.68051270313566e-05
0.00010058371862363556
0.00010885087357900291
0.00011160659189745871
0.00011436231021591448
0.00012814090180819342
0.00014191949340047234
0.00015018664835583973
0.0001556980849927513
0.00016120952162966288
0.0001694766765850302
0.00017774383154039756
0.00018601098649576498
0.00018876670481422076
0.00018876670481422076
0.0001970338597695881
0.00020805673304341124
0.0002190796063172344
0.0002190796063172344
0.00020805673304341124
0.00020254529640649968
0.00020530101472495543
0.00019978957808804387
0.00018876670481422076
0.00017774383154039756
0.00016396523994811866
0.00015294236667429551
0.00014467521171892812
0.00013089662012664922
0.00010885087357900291
8.404940871290084e-05
6.751509880216611e-05
5.649222552834297e-05
4.271363393606403e-05
2.8935042343785094e-05
1.2400732433050376e-05
1.3778591592272275e-06
-1.377859159228559e-06
-9.64501411459592e-06
-2.342360570687485e-05
-3.720219729915378e-05
-4.8225070572976926e-05
-5.3736507209888505e-05
-5.6492225528344285e-05
-6.200366216525588e-05
-7.302653543907902e-05
-7.85379720759906e-05
-8.404940871290214e-05
-7.85379720759906e-05
-8.129369039444639e-05
-8.680512703135793e-05
-8.680512703135793e-05
-8.129369039444639e-05
-7.302653543907902e-05
-7.027081712062322e-05
-7.027081712062322e-05
-7.57822537575348e-05
-6.751509880216745e-05
-5.6492225528344285e-05
-5.3736507209888505e-05
-5.9247943846800084e-05
-6.475938048371164e-05
-4.8225070572976926e-05
-4.5469352254521147e-05
-5.098078889143272e-05
-5.3736507209888505e-05
-5.098078889143272e-05
-4.5469352254521147e-05
-4.5469352254521147e-05
-5.098078889143272e-05
-5.9247943846800084e-05
-5.9247943846800084e-05
-5.6492225528344285e-05
-5.6492225528344285e-05
-6.475938048371164e-05
-7.57822537575348e-05
-7.85379720759906e-05
-7.57822537575348e-05
-7.027081712062322e-05
-7.302653543907902e-05
-8.404940871290214e-05
-9.231656366826955e-05
-9.231656366826955e-05
-8.680512703135793e-05
-9.507228198672531e-05
-0.00010058371862363688
-0.00010609515526054846
-0.00010609515526054846
-0.00010609515526054846
-0.00010333943694209268
-0.00010609515526054846
-0.00011436231021591582
-0.0001171180285343716
-0.00010885087357900426
-0.00010885087357900426
-0.0001171180285343716
-0.0001226294651712832
-0.0001198737468528274
-0.00011436231021591582
-0.0001198737468528274
-0.0001226294651712832
-0.00012814090180819475
-0.00013089662012665053
-0.0001226294651712832
-0.0001198737468528274
-0.0001226294651712832
-0.0001336523384451063
-0.0001336523384451063
-0.00012814090180819475
-0.0001226294651712832
-0.00012538518348973897
-0.0001336523384451063
-0.00013089662012665053
-0.00012814090180819475
-0.0001226294651712832
-0.0001226294651712832
-0.0001336523384451063
-0.0001391637750820179
-0.0001391637750820179
-0.0001391637750820179
-0.0001336523384451063
-0.0001336523384451063
-0.0001391637750820179
-0.0001391637750820179
-0.0001336523384451063
-0.00012814090180819475
-0.0001336523384451063
-0.00014191949340047367
-0.00013089662012665053
-0.00013089662012665053
-0.0001391637750820179
-0.00014191949340047367
-0.00014467521171892948
-0.0001391637750820179
-0.0001336523384451063
-0.0001336523384451063
-0.00014191949340047367
-0.00014467521171892948
-0.0001391637750820179
-0.00014191949340047367
-0.00014191949340047367
-0.0001391637750820179
-0.00014191949340047367
-0.00014191949340047367
-0.00013089662012665053
-0.00013089662012665053
-0.0001391637750820179
-0.00014743093003738526
-0.00014743093003738526
-0.00014191949340047367
-0.0001336523384451063
-0.0001336523384451063
-0.0001391637750820179
-0.0001391637750820179
-0.0001364080567635621
-0.00013089662012665053
-0.0001336523384451063
-0.0001391637750820179
-0.00014191949340047367
-0.00012814090180819475
-0.0001198737468528274
-0.00011436231021591582
-0.00011160659189746003
-0.00010058371862363688
-8.680512703135793e-05
-7.85379720759906e-05
-7.57822537575348e-05
-7.302653543907902e-05
-5.6492225528344285e-05
-2.066788738841907e-05
4.133577477683014e-06
1.3778591592272275e-06
-2.342360570687485e-05
-4.8225070572976926e-05
-6.200366216525588e-05
-5.9247943846800084e-05
-5.6492225528344285e-05
-5.9247943846800084e-05
-5.9247943846800084e-05
-6.751509880216745e-05
-8.404940871290214e-05
-0.00010885087357900426
-0.0001226294651712832
-0.00013089662012665053
-0.0001336523384451063
-0.00013089662012665053
-0.0001336523384451063
-0.0001364080567635621
-0.0001391637750820179
-0.0001391637750820179
-0.0001336523384451063
-0.00013089662012665053
-0.00012538518348973897
-0.0001364080567635621
-0.00012538518348973897
-0.00010058371862363688
-8.129369039444639e-05
-3.4446478980697995e-05
0.00014743093003738393
0.0004395370717936973
0.0007068417486839086
0.000896986312657358
0.0010182379186694126
0.0008887191577019906
0.0005304757763027383
0.00013089662012664922
-0.00015294236667429682
-0.00030175115587090934
-0.0003596212405584808
-0.0003293083390554673
-0.00022734676127260308
-0.0001226294651712832
-6.475938048371164e-05
-4.5469352254521147e-05
-4.5469352254521147e-05
-4.5469352254521147e-05
-4.5469352254521147e-05
-4.8225070572976926e-05
-5.3736507209888505e-05
-5.6492225528344285e-05
-4.8225070572976926e-05
-3.995791561760957e-05
-3.995791561760957e-05
-4.5469352254521147e-05
-4.8225070572976926e-05
-4.2713633936065354e-05
-3.4446478980697995e-05
-3.169076066224221e-05
-2.8935042343786426e-05
-2.8935042343786426e-05
-2.342360570687485e-05
-1.5156450751507488e-05
-9.64501411459592e-06
-9.64501411459592e-06
-1.240073243305171e-05
-6.889295796140132e-06
6.8892957961388014e-06
1.7912169069961946e-05
2.066788738841773e-05
2.3423605706873515e-05
3.169076066224089e-05
4.546935225451981e-05
5.373650720988717e-05
5.649222552834297e-05
5.649222552834297e-05
5.9247943846798756e-05
7.02708171206219e-05
8.129369039444505e-05
8.956084534981241e-05
9.507228198672396e-05
0.00010058371862363556
0.00011160659189745871
0.0001253851834897376
0.00012814090180819342
0.00013089662012664922
0.00013640805676356078
0.00014743093003738393
0.00016672095826657444
0.00017774383154039756
0.00018049954985885336
0.00018601098649576498
0.00019427814145113231
0.00020254529640649968
0.00020530101472495543
0.00020805673304341124
0.000210812451361867
0.0002135681696803228
0.00021632388799877858
0.000210812451361867
0.00019427814145113231
0.00018049954985885336
0.000172232394903486
0.00016396523994811866
0.00014467521171892812
0.0001253851834897376
0.00010609515526054714
8.956084534981241e-05
7.853797207598924e-05
7.02708171206219e-05
5.373650720988717e-05
3.444647898069667e-05
2.6179324025329308e-05
2.066788738841773e-05
9.64501411459459e-06
-6.889295796140132e-06
-2.6179324025330647e-05
-3.720219729915378e-05
-3.995791561760957e-05
-4.8225070572976926e-05
-6.475938048371164e-05
-7.57822537575348e-05
-7.85379720759906e-05
-7.57822537575348e-05
-7.57822537575348e-05
-8.680512703135793e-05
-9.231656366826955e-05
-9.231656366826955e-05
-9.231656366826955e-05
-8.680512703135793e-05
-8.404940871290214e-05
-8.129369039444639e-05
-8.404940871290214e-05
-7.85379720759906e-05
-7.302653543907902e-05
-6.751509880216745e-05
-6.751509880216745e-05
-6.475938048371164e-05
-6.200366216525588e-05
-5.6492225528344285e-05
-5.3736507209888505e-05
-5.6492225528344285e-05
-5.9247943846800084e-05
-5.6492225528344285e-05
-4.8225070572976926e-05
-4.5469352254521147e-05
-5.098078889143272e-05
-5.098078889143272e-05
-5.098078889143272e-05
-5.3736507209888505e-05
-5.3736507209888505e-05
-5.6492225528344285e-05
-6.751509880216745e-05
-7.57822537575348e-05
-7.302653543907902e-05
-7.302653543907902e-05
-8.404940871290214e-05
-8.404940871290214e-05
-8.404940871290214e-05
-8.404940871290214e-05
-9.231656366826955e-05
-0.00010609515526054846
-0.00010885087357900426
-0.00010333943694209268
-0.00010609515526054846
-0.00010885087357900426
-0.00011160659189746003
-0.0001171180285343716
-0.00011436231021591582
-0.00010885087357900426
-0.00011160659189746003
-0.0001198737468528274
-0.00012814090180819475
-0.00012814090180819475
-0.0001226294651712832
-0.0001198737468528274
-0.0001226294651712832
-0.00012814090180819475
-0.0001364080567635621
-0.0001364080567635621
-0.00013089662012665053
-0.0001336523384451063
-0.00014191949340047367
-0.0001391637750820179
-0.0001391637750820179
-0.00013089662012665053
-0.00013089662012665053
-0.0001364080567635621
-0.0001364080567635621
-0.0001364080567635621
-0.0001336523384451063
-0.00013089662012665053
-0.0001364080567635621
-0.00014467521171892948
-0.00014743093003738526
-0.00014467521171892948
-0.0001391637750820179
-0.00014191949340047367
-0.00014743093003738526
-0.00014467521171892948
-0.0001336523384451063
-0.00012814090180819475
-0.00013089662012665053
-0.0001391637750820179
-0.00014191949340047367
-0.0001391637750820179
-0.0001364080567635621
-0.00014191949340047367
-0.000150186648355841
-0.00014743093003738526
-0.00014467521171892948
-0.00014191949340047367
-0.00014467521171892948
-0.00014743093003738526
-0.00014743093003738526
-0.00014191949340047367
-0.0001364080567635621
-0.0001364080567635621
-0.00014191949340047367
-0.00014743093003738526
-0.00014743093003738526
-0.0001391637750820179
-0.0001364080567635621
-0.0001391637750820179
-0.00014743093003738526
-0.00014467521171892948
-0.00014467521171892948
-0.000150186648355841
-0.000150186648355841
-0.00014467521171892948
-0.0001364080567635621
-0.00013089662012665053
-0.0001336523384451063
-0.00014467521171892948
-0.00015294236667429682
-0.00014467521171892948
-0.0001336523384451063
-0.00012538518348973897
-0.00012814090180819475
-0.0001226294651712832
-0.00010609515526054846
-9.78280003051811e-05
-9.231656366826955e-05
-9.231656366826955e-05
-7.57822537575348e-05
-3.720219729915378e-05
-1.377859159228559e-06
6.8892957961388014e-06
-1.5156450751507488e-05
-3.995791561760957e-05
-5.6492225528344285e-05
-6.475938048371164e-05
-7.027081712062322e-05
-7.302653543907902e-05
-7.57822537575348e-05
-8.129369039444639e-05
-9.507228198672531e-05
-0.00010885087357900426
-0.00012538518348973897
-0.00014191949340047367
-0.000150186648355841
-0.00014467521171892948
-0.00014191949340047367
-0.00014191949340047367
-0.00014467521171892948
-0.00014743093003738526
-0.00014467521171892948
-0.0001364080567635621
-0.0001364080567635621
-0.0001364080567635621
-0.0001391637750820179
-0.0001364080567635621
-0.0001226294651712832
-0.00010885087357900426
-8.129369039444639e-05
2.3423605706873515e-05
0.000263171099412527
0.0005635443961242077
0.0007977804531929496
0.0009576121156633854
0.000971390707255664
0.000701330312046997
0.0003182854657816428
-3.4446478980697995e-05
-0.0002604153810940725
-0.0003954455786984061
-0.000423002761882964
-0.00024112535286488197
-0.0001391637750820179
-8.129369039444639e-05
-5.6492225528344285e-05
-5.6492225528344285e-05
-5.6492225528344285e-05
-6.475938048371164e-05
-7.027081712062322e-05
-7.302653543907902e-05
-6.751509880216745e-05
-5.6492225528344285e-05
-4.8225070572976926e-05
-4.8225070572976926e-05
-4.8225070572976926e-05
-4.5469352254521147e-05
-3.720219729915378e-05
-3.4446478980697995e-05
-3.169076066224221e-05
-3.169076066224221e-05
-2.8935042343786426e-05
-2.066788738841907e-05
-1.5156450751507488e-05
-1.240073243305171e-05
-9.64501411459592e-06
-4.133577477684346e-06
4.133577477683014e-06
1.2400732433050376e-05
1.5156450751506162e-05
1.2400732433050376e-05
2.066788738841773e-05
2.8935042343785094e-05
3.444647898069667e-05
3.9957915617608246e-05
4.546935225451981e-05
4.82250705729756e-05
5.649222552834297e-05
7.02708171206219e-05
8.129369039444505e-05
8.129369039444505e-05
8.956084534981241e-05
9.782800030517979e-05
0.00011436231021591448
0.00012262946517128183
0.0001253851834897376
0.00012814090180819342
0.00013365233844510492
0.00014467521171892812
0.00016120952162966288
0.00016672095826657444
0.0001694766765850302
0.00018049954985885336
0.00019152242313267648
0.00020254529640649968
0.00020530101472495543
0.00020530101472495543
0.000210812451361867
0.0002190796063172344
0.00021632388799877858
0.00020254529640649968
0.00019152242313267648
0.0001832552681773092
0.00018049954985885336
0.00017498811322194178
0.00016396523994811866
0.00014191949340047234
0.00012262946517128183
0.00010333943694209132
8.956084534981241e-05
7.02708171206219e-05
5.649222552834297e-05
4.546935225451981e-05
3.444647898069667e-05
2.3423605706873515e-05
4.133577477683014e-06
-1.5156450751507488e-05
-2.342360570687485e-05
-3.169076066224221e-05
-4.2713633936065354e-05
-5.9247943846800084e-05
-7.302653543907902e-05
-7.85379720759906e-05
-7.57822537575348e-05
-7.85379720759906e-05
-8.404940871290214e-05
-9.231656366826955e-05
-9.507228198672531e-05
-8.956084534981374e-05
-8.956084534981374e-05
-9.507228198672531e-05
-9.78280003051811e-05
-9.231656366826955e-05
-8.129369039444639e-05
-7.302653543907902e-05
-7.027081712062322e-05
-7.57822537575348e-05
-7.302653543907902e-05
-6.751509880216745e-05
-5.9247943846800084e-05
-6.200366216525588e-05
-6.475938048371164e-05
-6.200366216525588e-05
-5.3736507209888505e-05
-5.3736507209888505e-05
-4.8225070572976926e-05
-5.098078889143272e-05
-5.6492225528344285e-05
-6.200366216525588e-05
-5.9247943846800084e-05
-5.6492225528344285e-05
-6.200366216525588e-05
-7.027081712062322e-05
-7.302653543907902e-05
-7.302653543907902e-05
-7.57822537575348e-05
-7.85379720759906e-05
-8.680512703135793e-05
-8.956084534981374e-05
-8.956084534981374e-05
-8.956084534981374e-05
-9.231656366826955e-05
-0.00010058371862363688
-0.00010609515526054846
-0.00010609515526054846
-0.00010609515526054846
-0.00010885087357900426
-0.00011436231021591582
-0.0001198737468528274
-0.0001198737468528274
-0.00011436231021591582
-0.00011160659189746003
-0.0001171180285343716
-0.00012814090180819475
-0.0001171180285343716
-0.00011436231021591582
-0.0001198737468528274
-0.00012814090180819475
-0.00012538518348973897
-0.0001226294651712832
-0.0001198737468528274
-0.0001226294651712832
-0.00013089662012665053
-0.00013089662012665053
-0.00012538518348973897
-0.0001226294651712832
-0.00013089662012665053
-0.0001391637750820179
-0.0001364080567635621
-0.00013089662012665053
-0.00012538518348973897
-0.00012814090180819475
-0.0001336523384451063
-0.0001364080567635621
-0.00013089662012665053
-0.00012538518348973897
-0.00012538518348973897
-0.00012814090180819475
-0.00013089662012665053
-0.00013089662012665053
-0.0001226294651712832
-0.0001198737468528274
-0.0001226294651712832
-0.00012538518348973897
-0.00012814090180819475
-0.00012538518348973897
-0.00012538518348973897
-0.00013089662012665053
-0.0001364080567635621
-0.0001364080567635621
-0.00013089662012665053
-0.00012538518348973897
-0.0001226294651712832
-0.00012814090180819475
-0.00013089662012665053
-0.00012538518348973897
-0.0001171180285343716
-0.0001171180285343716
-0.00012538518348973897
-0.00013089662012665053
-0.00013089662012665053
-0.00012538518348973897
-0.0001226294651712832
-0.0001226294651712832
-0.00012814090180819475
-0.00013089662012665053
-0.00012814090180819475
-0.0001226294651712832
-0.00012814090180819475
-0.0001336523384451063
-0.0001364080567635621
-0.00013089662012665053
-0.0001198737468528274
-0.0001171180285343716
-0.00011436231021591582
-0.00010885087357900426
-9.231656366826955e-05
-7.85379720759906e-05
-7.302653543907902e-05
-7.302653543907902e-05
-4.5469352254521147e-05
-4.133577477684346e-06
1.7912169069961946e-05
4.133577477683014e-06
-1.5156450751507488e-05
-3.4446478980697995e-05
-4.5469352254521147e-05
-5.6492225528344285e-05
-6.200366216525588e-05
-6.200366216525588e-05
-5.9247943846800084e-05
-6.200366216525588e-05
-8.129369039444639e-05
-0.00010609515526054846
-0.00012814090180819475
-0.0001364080567635621
-0.00013089662012665053
-0.00013089662012665053
-0.0001364080567635621
-0.00014467521171892948
-0.00014743093003738526
-0.00014191949340047367
-0.0001364080567635621
-0.0001364080567635621
-0.0001364080567635621
-0.0001391637750820179
-0.0001336523384451063
-0.0001226294651712832
-0.00010609515526054846
-8.680512703135793e-05
-3.4446478980697995e-05
0.00013640805676356078
0.00042300276188296266
0.0006903074387731741
0.0008501391012436096
0.0009658792706187528
0.0008776962844281674
0.0005414986495765614
0.00015018664835583973
-0.00014743093003738526
-0.0003127740291447324
-0.00039268986037995033
-0.00037615555046921565
-0.0002852168459601746
-0.00017498811322194308
-9.231656366826955e-05
-5.3736507209888505e-05
-4.2713633936065354e-05
-4.2713633936065354e-05
-4.8225070572976926e-05
-5.6492225528344285e-05
-5.6492225528344285e-05
-4.5469352254521147e-05
-3.720219729915378e-05
-3.720219729915378e-05
-4.2713633936065354e-05
-3.4446478980697995e-05
-2.6179324025330647e-05
-2.066788738841907e-05
-2.066788738841907e-05
-2.342360570687485e-05
-2.342360570687485e-05
-2.066788738841907e-05
-1.5156450751507488e-05
-9.64501411459592e-06
-4.133577477684346e-06
-4.133577477684346e-06
4.133577477683014e-06
1.5156450751506162e-05
1.5156450751506162e-05
1.7912169069961946e-05
2.3423605706873515e-05
3.444647898069667e-05
4.271363393606403e-05
4.82250705729756e-05
4.271363393606403e-05
5.098078889143139e-05
6.475938048371032e-05
7.853797207598924e-05
8.404940871290084e-05
8.956084534981241e-05
9.507228198672396e-05
0.00010609515526054714
0.00011987374685282605
0.0001253851834897376
0.00012814090180819342
0.00013365233844510492
0.00014743093003738393
0.00016396523994811866
0.00017498811322194178
0.00017498811322194178
0.00017774383154039756
0.00019978957808804387
0.00021632388799877858
0.00022459104295414594
0.00022459104295414594
0.00023010247959105753
0.0002383696345464249
0.00024663678950179223
0.0002549039444571596
0.00025214822613870384
0.00024388107118333642
0.0002383696345464249
0.00023561391622796914
0.00022734676127260172
0.0002135681696803228
0.00019427814145113231
0.000172232394903486
0.00016672095826657444
0.00016120952162966288
0.00014467521171892812
0.0001253851834897376
0.00010333943694209132
8.956084534981241e-05
8.404940871290084e-05
6.751509880216611e-05
3.9957915617608246e-05
2.3423605706873515e-05
9.64501411459459e-06
-6.889295796140132e-06
-2.342360570687485e-05
-3.995791561760957e-05
-5.3736507209888505e-05
-6.475938048371164e-05
-7.302653543907902e-05
-7.57822537575348e-05
-8.404940871290214e-05
-9.78280003051811e-05
-0.00010333943694209268
-0.00010058371862363688
-9.507228198672531e-05
-9.78280003051811e-05
-9.507228198672531e-05
-9.507228198672531e-05
-8.956084534981374e-05
-8.956084534981374e-05
-9.231656366826955e-05
-8.680512703135793e-05
-8.129369039444639e-05
-7.302653543907902e-05
-6.751509880216745e-05
-7.027081712062322e-05
-7.57822537575348e-05
-7.302653543907902e-05
-6.200366216525588e-05
-6.200366216525588e-05
-6.751509880216745e-05
-7.027081712062322e-05
-7.027081712062322e-05
-6.475938048371164e-05
-6.475938048371164e-05
-7.302653543907902e-05
-7.85379720759906e-05
-7.85379720759906e-05
-7.85379720759906e-05
-7.85379720759906e-05
-8.404940871290214e-05
-8.956084534981374e-05
-9.231656366826955e-05
-8.956084534981374e-05
-8.956084534981374e-05
-9.78280003051811e-05
-0.00010885087357900426
-0.00011160659189746003
-0.00010885087357900426
-0.00010609515526054846
-0.00011160659189746003
-0.0001198737468528274
-0.00012538518348973897
-0.00012814090180819475
-0.0001198737468528274
-0.0001198737468528274
-0.00012538518348973897
-0.00013089662012665053
-0.0001336523384451063
-0.00013089662012665053
-0.00012814090180819475
-0.0001336523384451063
-0.00014191949340047367
-0.00014191949340047367
-0.0001364080567635621
-0.0001364080567635621
-0.0001364080567635621
-0.00014467521171892948
-0.00014743093003738526
-0.00014467521171892948
-0.00014191949340047367
-0.00014467521171892948
-0.00015294236667429682
-0.00015294236667429682
-0.00014743093003738526
-0.00014743093003738526
-0.00015294236667429682
-0.0001584538033112084
-0.00015569808499275262
-0.00015294236667429682
-0.00014743093003738526
-0.00015294236667429682
-0.00015569808499275262
-0.0001584538033112084
-0.00015294236667429682
-0.000150186648355841
-0.0001584538033112084
-0.00016396523994811996
-0.00016396523994811996
-0.0001584538033112084
-0.00015569808499275262
-0.0001584538033112084
-0.0001612095216296642
-0.0001612095216296642
-0.00015569808499275262
-0.00015569808499275262
-0.0001584538033112084
-0.0001612095216296642
-0.0001612095216296642
-0.00015569808499275262
-0.00015294236667429682
-0.00015294236667429682
-0.0001612095216296642
-0.00016672095826657574
-0.0001612095216296642
-0.00015294236667429682
-0.00015569808499275262
-0.00016396523994811996
-0.00016947667658503157
-0.00016396523994811996
-0.00015569808499275262
-0.0001584538033112084
-0.00016396523994811996
-0.00016672095826657574
-0.0001584538033112084
-0.00014743093003738526
-0.00014191949340047367
-0.0001391637750820179
-0.00013089662012665053
-0.0001198737468528274
-0.00011160659189746003
-9.78280003051811e-05
-9.507228198672531e-05
-8.129369039444639e-05
-4.8225070572976926e-05
-1.5156450751507488e-05
-1.5156450751507488e-05
-3.995791561760957e-05
-7.027081712062322e-05
-8.680512703135793e-05
-9.507228198672531e-05
-9.507228198672531e-05
-9.231656366826955e-05
-9.507228198672531e-05
-0.00010058371862363688
-0.00011436231021591582
-0.0001364080567635621
-0.00015569808499275262
-0.00017223239490348733
-0.00017223239490348733
-0.00017223239490348733
-0.00017223239490348733
-0.00017223239490348733
-0.0001777438315403989
-0.00018049954985885472
-0.00018049954985885472
-0.00016947667658503157
-0.00017498811322194308
-0.00018049954985885472
-0.0001777438315403989
-0.0001612095216296642
-0.0001391637750820179
-0.00011160659189746003
-9.64501411459592e-06
0.0002383696345464249
0.0005442543678950173
0.0007647118333714802
0.0009135206225680924
0.0009383220874341949
0.0006930631570916297
0.00029623971923399637
-6.751509880216745e-05
-0.0002852168459601746
-0.0003899341420614945
-0.00041197988860914084
-0.00035410980392156926
-0.00024112535286488197
-0.00014467521171892948
-9.78280003051811e-05
-8.956084534981374e-05
-9.231656366826955e-05
-9.231656366826955e-05
-9.231656366826955e-05
-9.231656366826955e-05
-8.680512703135793e-05
-8.404940871290214e-05
-7.57822537575348e-05
-7.027081712062322e-05
-7.57822537575348e-05
-8.129369039444639e-05
-7.57822537575348e-05
-6.475938048371164e-05
-5.6492225528344285e-05
-5.9247943846800084e-05
-6.200366216525588e-05
-5.9247943846800084e-05
-4.5469352254521147e-05
-3.720219729915378e-05
-3.4446478980697995e-05
-3.720219729915378e-05
-3.720219729915378e-05
-2.8935042343786426e-05
-1.5156450751507488e-05
-9.64501411459592e-06
-9.64501411459592e-06
-6.889295796140132e-06
1.3778591592272275e-06
1.2400732433050376e-05
2.3423605706873515e-05
2.8935042343785094e-05
2.8935042343785094e-05
3.444647898069667e-05
4.82250705729756e-05
5.9247943846798756e-05
6.475938048371032e-05
7.853797207598924e-05
9.23165636682682e-05
0.00010333943694209132
0.00011160659189745871
0.00011987374685282605
0.00012262946517128183
0.00013365233844510492
0.00016120952162966288
0.0001694766765850302
0.00017498811322194178
0.00018049954985885336
0.00019427814145113231
0.0002135681696803228
0.0002218353246356902
0.00022459104295414594
0.00022734676127260172
0.00023285819790951333
0.0002383696345464249
0.00024112535286488067
0.00023285819790951333
0.0002218353246356902
0.00021632388799877858
0.0002135681696803228
0.00020530101472495543
0.00018876670481422076
0.000172232394903486
0.0001556980849927513
0.00014467521171892812
0.00013365233844510492
0.00011436231021591448
8.956084534981241e-05
7.30265354390777e-05
5.649222552834297e-05
3.720219729915245e-05
2.066788738841773e-05
-6.889295796140132e-06
-2.8935042343786426e-05
-4.2713633936065354e-05
-5.3736507209888505e-05
-7.027081712062322e-05
-8.680512703135793e-05
-0.00010333943694209268
-0.00011160659189746003
-0.0001171180285343716
-0.0001226294651712832
-0.0001336523384451063
-0.0001391637750820179
-0.0001364080567635621
-0.00013089662012665053
-0.00012814090180819475
-0.00013089662012665053
-0.0001336523384451063
-0.00012814090180819475
-0.0001226294651712832
-0.0001198737468528274
-0.0001226294651712832
-0.0001198737468528274
-0.0001171180285343716
-0.00011160659189746003
-0.00010609515526054846
-0.00010333943694209268
-0.00010333943694209268
-0.00010333943694209268
-0.00010058371862363688
-9.231656366826955e-05
-9.231656366826955e-05
-9.507228198672531e-05
-0.00010058371862363688
-9.507228198672531e-05
-9.231656366826955e-05
-9.231656366826955e-05
-9.78280003051811e-05
-0.00010609515526054846
-9.78280003051811e-05
-0.00010058371862363688
-0.00011160659189746003
-0.0001226294651712832
-0.00012538518348973897
-0.0001198737468528274
-0.0001198737468528274
-0.00013089662012665053
-0.0001364080567635621
-0.0001364080567635621
-0.0001364080567635621
-0.0001364080567635621
-0.0001364080567635621
-0.00014191949340047367
-0.00014467521171892948
-0.00014467521171892948
-0.00014467521171892948
-0.00015294236667429682
-0.0001584538033112084
-0.0001584538033112084
-0.0001584538033112084
-0.000150186648355841
-0.000150186648355841
-0.00015569808499275262
-0.0001612095216296642
-0.0001584538033112084
-0.00015294236667429682
-0.00015294236667429682
-0.00015569808499275262
-0.00016396523994811996
-0.00016396523994811996
-0.0001584538033112084
-0.00015569808499275262
-0.00016396523994811996
-0.00016672095826657574
-0.00016672095826657574
-0.0001612095216296642
-0.0001584538033112084
-0.00016672095826657574
-0.00016947667658503157
-0.00017223239490348733
-0.00016947667658503157
-0.00016396523994811996
-0.00016396523994811996
-0.00017223239490348733
-0.00017498811322194308
-0.00017498811322194308
-0.00016672095826657574
-0.00016947667658503157
-0.0001777438315403989
-0.00018049954985885472
-0.0001777438315403989
-0.00017223239490348733
-0.00017223239490348733
-0.0001777438315403989
-0.00018049954985885472
-0.0001777438315403989
-0.00017223239490348733
-0.00017498811322194308
-0.0001777438315403989
-0.00018049954985885472
-0.00018049954985885472
-0.00017498811322194308
-0.00017223239490348733
-0.00017498811322194308
-0.0001612095216296642
-0.00014743093003738526
-0.0001336523384451063
-0.0001226294651712832
-0.0001226294651712832
-0.0001226294651712832
-0.00011436231021591582
-8.956084534981374e-05
-5.3736507209888505e-05
-3.720219729915378e-05
-4.2713633936065354e-05
-5.6492225528344285e-05
-7.302653543907902e-05
-8.956084534981374e-05
-0.00010885087357900426
-0.00011160659189746003
-0.00010333943694209268
-9.507228198672531e-05
-0.00010058371862363688
-0.00013089662012665053
-0.0001584538033112084
-0.00017498811322194308
-0.0001777438315403989
-0.00017223239490348733
-0.0001777438315403989
-0.00018601098649576628
-0.00018601098649576628
-0.00018049954985885472
-0.00017223239490348733
-0.0001777438315403989
-0.00018601098649576628
-0.00018325526817731047
-0.00018049954985885472
-0.00017498811322194308
-0.00016947667658503157
-0.00016396523994811996
-0.00014743093003738526
-0.00010333943694209268
5.373650720988717e-05
0.0003375754940108332
0.0006214144808117793
0.000806047608148317
0.0009438335240711064
0.0009024977492942696
0.0005938572976272215
0.00018049954985885336
-0.00014191949340047367
-0.0003210411841000998
-0.0003899341420614945
-0.0003899341420614945
-0.00030726259250782084
-0.00020254529640650095
-0.00012814090180819475
-8.956084534981374e-05
-8.129369039444639e-05
-8.956084534981374e-05
-9.78280003051811e-05
-0.00010058371862363688
-9.507228198672531e-05
-9.231656366826955e-05
-9.231656366826955e-05
-9.507228198672531e-05
-9.231656366826955e-05
-8.680512703135793e-05
-7.57822537575348e-05
-7.57822537575348e-05
-7.85379720759906e-05
-7.302653543907902e-05
-6.475938048371164e-05
-6.475938048371164e-05
-6.475938048371164e-05
-5.9247943846800084e-05
-5.3736507209888505e-05
-4.2713633936065354e-05
-3.995791561760957e-05
-3.720219729915378e-05
-2.8935042343786426e-05
-2.066788738841907e-05
-1.5156450751507488e-05
-6.889295796140132e-06
-1.377859159228559e-06
-1.377859159228559e-06
1.3778591592272275e-06
1.7912169069961946e-05
3.169076066224089e-05
3.720219729915245e-05
3.9957915617608246e-05
4.82250705729756e-05
6.200366216525454e-05
7.578225375753347e-05
8.129369039444505e-05
8.404940871290084e-05
9.507228198672396e-05
0.00010885087357900291
0.00012262946517128183
0.00013089662012664922
0.00013640805676356078
0.00014743093003738393
0.00016120952162966288
0.00017774383154039756
0.00018601098649576498
0.00019427814145113231
0.00020254529640649968
0.0002135681696803228
0.00022459104295414594
0.00022734676127260172
0.0002218353246356902
0.0002190796063172344
0.00022459104295414594
0.00022734676127260172
0.0002218353246356902
0.000210812451361867
0.00019978957808804387
0.00018876670481422076
0.00018049954985885336
0.0001694766765850302
0.00015294236667429551
0.00013365233844510492
0.00011711802853437029
0.00010609515526054714
9.23165636682682e-05
7.578225375753347e-05
5.098078889143139e-05
2.3423605706873515e-05
6.8892957961388014e-06
-4.133577477684346e-06
-2.342360570687485e-05
-4.5469352254521147e-05
-6.475938048371164e-05
-7.85379720759906e-05
-8.680512703135793e-05
-9.231656366826955e-05
-0.0001171180285343716
-0.0001226294651712832
-0.00012538518348973897
-0.00012538518348973897
-0.00013089662012665053
-0.0001336523384451063
-0.00013089662012665053
-0.00012814090180819475
-0.0001198737468528274
-0.0001198737468528274
-0.0001226294651712832
-0.0001171180285343716
-0.00010885087357900426
-0.00010333943694209268
-0.00010058371862363688
-0.00010885087357900426
-0.00010885087357900426
-9.78280003051811e-05
-8.680512703135793e-05
-8.956084534981374e-05
-9.78280003051811e-05
-0.00010058371862363688
-0.00010058371862363688
-9.507228198672531e-05
-9.78280003051811e-05
-0.00010333943694209268
-0.00010609515526054846
-0.00010609515526054846
-0.00010058371862363688
-0.00010333943694209268
-0.00011160659189746003
-0.0001171180285343716
-0.0001198737468528274
-0.0001171180285343716
-0.00011160659189746003
-0.0001198737468528274
-0.00012538518348973897
-0.00012538518348973897
-0.00012538518348973897
-0.00012538518348973897
-0.0001336523384451063
-0.0001391637750820179
-0.00014191949340047367
-0.0001391637750820179
-0.0001391637750820179
-0.00014191949340047367
-0.00014467521171892948
-0.000150186648355841
-0.000150186648355841
-0.000150186648355841
-0.00014191949340047367
-0.00014743093003738526
-0.00015294236667429682
-0.00015294236667429682
-0.000150186648355841
-0.00014467521171892948
-0.000150186648355841
-0.00015569808499275262
-0.00015569808499275262
-0.00015294236667429682
-0.00014743093003738526
-0.00014743093003738526
-0.0001584538033112084
-0.0001584538033112084
-0.00015569808499275262
-0.000150186648355841
-0.0001584538033112084
-0.0001612095216296642
-0.0001584538033112084
-0.00015569808499275262
-0.00015569808499275262
-0.00016396523994811996
-0.00016947667658503157
-0.00016396523994811996
-0.00016396523994811996
-0.00016396523994811996
-0.00016947667658503157
-0.00016947667658503157
-0.00016947667658503157
-0.00016672095826657574
-0.00016396523994811996
-0.00016947667658503157
-0.00017498811322194308
-0.00017498811322194308
-0.00016947667658503157
-0.00016672095826657574
-0.00016947667658503157
-0.00017223239490348733
-0.00017498811322194308
-0.00016672095826657574
-0.0001584538033112084
-0.0001584538033112084
-0.0001584538033112084
-0.000150186648355841
-0.0001336523384451063
-0.00012538518348973897
-0.0001198737468528274
-0.00012538518348973897
-0.0001226294651712832
-9.231656366826955e-05
-5.098078889143272e-05
-3.720219729915378e-05
-5.098078889143272e-05
-7.57822537575348e-05
-9.231656366826955e-05
-9.78280003051811e-05
-0.00010333943694209268
-0.00010609515526054846
-0.00010609515526054846
-0.00010333943694209268
-0.00010885087357900426
-0.00012814090180819475
-0.00015294236667429682
-0.0001777438315403989
-0.00018325526817731047
-0.0001777438315403989
-0.00017223239490348733
-0.00018049954985885472
-0.00018601098649576628
-0.00018601098649576628
-0.00018325526817731047
-0.00018049954985885472
-0.00018049954985885472
-0.00018601098649576628
-0.00018601098649576628
-0.00018601098649576628
-0.0001777438315403989
-0.00016672095826657574
-0.00015294236667429682
-0.00011160659189746003
5.9247943846798756e-05
0.0006407045090409697
0.0008253376363775078
0.0009631235523002968
0.000908009185931181
0.0005966130159456772
0.00019152242313267648
-0.00013089662012665053
-0.00030726259250782084
-0.000370644113832304
-0.0003651326771953924
-0.00027143825436789566
-0.00016947667658503157
-0.00011160659189746003
-8.680512703135793e-05
-7.85379720759906e-05
-8.129369039444639e-05
-8.956084534981374e-05
-9.78280003051811e-05
-9.78280003051811e-05
-8.956084534981374e-05
-8.404940871290214e-05
-8.129369039444639e-05
-8.404940871290214e-05
-8.404940871290214e-05
-7.85379720759906e-05
-7.027081712062322e-05
-6.751509880216745e-05
-6.751509880216745e-05
-7.027081712062322e-05
-6.200366216525588e-05
-5.098078889143272e-05
-4.5469352254521147e-05
-4.8225070572976926e-05
-4.5469352254521147e-05
-3.995791561760957e-05
-2.8935042343786426e-05
-2.066788738841907e-05
-1.7912169069963278e-05
-1.7912169069963278e-05
-1.240073243305171e-05
4.133577477683014e-06
1.5156450751506162e-05
1.5156450751506162e-05
1.5156450751506162e-05
2.3423605706873515e-05
3.720219729915245e-05
4.82250705729756e-05
5.373650720988717e-05
5.373650720988717e-05
5.9247943846798756e-05
7.578225375753347e-05
8.956084534981241e-05
9.507228198672396e-05
0.00011160659189745871
0.0001253851834897376
0.00013365233844510492
0.00014191949340047234
0.00015845380331120705
0.00016672095826657444
0.000172232394903486
0.0001832552681773092
0.00019427814145113231
0.00020254529640649968
0.000210812451361867
0.0002190796063172344
0.00022734676127260172
0.0002493925078202481
0.00024663678950179223
0.00023561391622796914
0.00023285819790951333
0.0002383696345464249
0.00023010247959105753
0.00021632388799877858
0.0001970338597695881
0.0001832552681773092
0.00017498811322194178
0.00016672095826657444
0.00015294236667429551
0.00013089662012664922
0.00011160659189745871
9.507228198672396e-05
7.853797207598924e-05
5.9247943846798756e-05
2.8935042343785094e-05
1.3778591592272275e-06
-1.240073243305171e-05
-2.8935042343786426e-05
-4.8225070572976926e-05
-6.751509880216745e-05
-8.404940871290214e-05
-9.507228198672531e-05
-0.00010333943694209268
-0.00010885087357900426
-0.0001198737468528274
-0.00012814090180819475
-0.00013089662012665053
-0.00012814090180819475
-0.00012538518348973897
-0.00012814090180819475
-0.0001336523384451063
-0.00013089662012665053
-0.0001226294651712832
-0.00011160659189746003
-0.00011160659189746003
-0.0001171180285343716
-0.0001171180285343716
-0.00011436231021591582
-0.00010609515526054846
-0.00010609515526054846
-0.00010333943694209268
-0.00010333943694209268
-0.00010058371862363688
-9.507228198672531e-05
-9.231656366826955e-05
-9.78280003051811e-05
-0.00010058371862363688
-9.78280003051811e-05
-8.956084534981374e-05
-8.956084534981374e-05
-0.00010058371862363688
-0.00010609515526054846
-0.00010333943694209268
-0.00010058371862363688
-0.00010058371862363688
-0.00010885087357900426
-0.00011436231021591582
-0.0001198737468528274
-0.0001171180285343716
-0.0001171180285343716
-0.0001226294651712832
-0.0001336523384451063
-0.0001364080567635621
-0.00013089662012665053
-0.0001336523384451063
-0.00014191949340047367
-0.00014191949340047367
-0.0001391637750820179
-0.0001364080567635621
-0.0001391637750820179
-0.00014467521171892948
-0.00015569808499275262
-0.00015294236667429682
-0.0001391637750820179
-0.0001391637750820179
-0.00015569808499275262
-0.0001612095216296642
-0.00015569808499275262
-0.00015569808499275262
-0.00015569808499275262
-0.0001584538033112084
-0.0001612095216296642
-0.00016396523994811996
-0.00016396523994811996
-0.0001612095216296642
-0.0001584538033112084
-0.0001612095216296642
-0.00016672095826657574
-0.00016672095826657574
-0.0001612095216296642
-0.00015569808499275262
-0.0001612095216296642
-0.00016396523994811996
-0.0001612095216296642
-0.0001584538033112084
-0.0001584538033112084
-0.00016396523994811996
-0.00017223239490348733
-0.00017223239490348733
-0.00016672095826657574
-0.00016947667658503157
-0.00017223239490348733
-0.00017498811322194308
-0.00017223239490348733
-0.00016672095826657574
-0.0001612095216296642
-0.00016672095826657574
-0.00017223239490348733
-0.00017223239490348733
-0.00016672095826657574
-0.0001612095216296642
-0.0001612095216296642
-0.00016672095826657574
-0.00016672095826657574
-0.0001612095216296642
-0.0001584538033112084
-0.0001584538033112084
-0.0001612095216296642
-0.00016396523994811996
-0.0001584538033112084
-0.00015294236667429682
-0.00015294236667429682
-0.00015294236667429682
-0.000150186648355841
-0.00014191949340047367
-0.00012814090180819475
-0.0001171180285343716
-0.0001171180285343716
-0.0001171180285343716
-9.507228198672531e-05
-5.9247943846800084e-05
-2.342360570687485e-05
-1.240073243305171e-05
-2.8935042343786426e-05
-4.8225070572976926e-05
-6.751509880216745e-05
-8.129369039444639e-05
-9.231656366826955e-05
-9.231656366826955e-05
-8.404940871290214e-05
-7.57822537575348e-05
-8.956084534981374e-05
-0.0001171180285343716
-0.0001391637750820179
-0.00014191949340047367
-0.00014191949340047367
-0.00014191949340047367
-0.000150186648355841
-0.00015569808499275262
-0.00015569808499275262
-0.00015294236667429682
-0.00014743093003738526
-0.00014743093003738526
-0.00015294236667429682
-0.00015294236667429682
-0.00014467521171892948
-0.0001391637750820179
-0.00014191949340047367
-0.0001364080567635621
-0.0001198737468528274
-9.231656366826955e-05
1.5156450751506162e-05
0.0002576596627756154
0.0005525215228503846
0.0007977804531929496
0.0009961921721217662
0.0010568179751277937
0.0008088033264667726
0.0004009570153353164
2.066788738841773e-05
-0.0002080567330434125
-0.00030726259250782084
-0.00032655262073701135
-0.0002686825360494398
-0.00016672095826657574
-8.680512703135793e-05
-4.2713633936065354e-05
-3.720219729915378e-05
-4.8225070572976926e-05
-6.200366216525588e-05
-6.200366216525588e-05
-5.6492225528344285e-05
-4.8225070572976926e-05
-5.098078889143272e-05
-5.9247943846800084e-05
-5.3736507209888505e-05
-3.995791561760957e-05
-3.4446478980697995e-05
-3.720219729915378e-05
-3.720219729915378e-05
-3.4446478980697995e-05
-2.8935042343786426e-05
-2.066788738841907e-05
-1.7912169069963278e-05
-1.5156450751507488e-05
-9.64501411459592e-06
1.3778591592272275e-06
6.8892957961388014e-06
4.133577477683014e-06
9.64501411459459e-06
2.066788738841773e-05
2.8935042343785094e-05
3.444647898069667e-05
3.720219729915245e-05
3.9957915617608246e-05
5.098078889143139e-05
6.200366216525454e-05
6.751509880216611e-05
7.02708171206219e-05
7.853797207598924e-05
8.956084534981241e-05
0.00010885087357900291
0.00012262946517128183
0.00013089662012664922
0.00013089662012664922
0.00013916377508201656
0.0001556980849927513
0.0001694766765850302
0.00017498811322194178
0.00017774383154039756
0.00019427814145113231
0.0002135681696803228
0.0002218353246356902
0.00022734676127260172
0.00023561391622796914
0.00024388107118333642
0.00026041538109407124
0.0002686825360494386
0.0002741939726863501
0.0002741939726863501
0.00027143825436789435
0.00027143825436789435
0.0002741939726863501
0.00026592681773098274
0.0002549039444571596
0.00024388107118333642
0.0002383696345464249
0.00023010247959105753
0.0002190796063172344
0.00020254529640649968
0.00018049954985885336
0.00016396523994811866
0.00015018664835583973
0.00013640805676356078
0.00011711802853437029
9.23165636682682e-05
6.751509880216611e-05
5.098078889143139e-05
3.720219729915245e-05
1.2400732433050376e-05
-1.240073243305171e-05
-3.720219729915378e-05
-4.5469352254521147e-05
-5.098078889143272e-05
-6.751509880216745e-05
-8.404940871290214e-05
-9.507228198672531e-05
-9.78280003051811e-05
-9.78280003051811e-05
-0.00010058371862363688
-0.00010885087357900426
-0.00010609515526054846
-9.507228198672531e-05
-8.956084534981374e-05
-9.231656366826955e-05
-9.78280003051811e-05
-9.507228198672531e-05
-8.680512703135793e-05
-8.404940871290214e-05
-8.956084534981374e-05
-9.231656366826955e-05
-8.680512703135793e-05
-7.85379720759906e-05
-7.57822537575348e-05
-8.129369039444639e-05
-8.129369039444639e-05
-7.57822537575348e-05
-7.027081712062322e-05
-7.302653543907902e-05
-7.85379720759906e-05
-8.956084534981374e-05
-8.680512703135793e-05
-7.85379720759906e-05
-7.85379720759906e-05
-8.129369039444639e-05
-8.956084534981374e-05
-9.507228198672531e-05
-9.231656366826955e-05
-9.231656366826955e-05
-0.00010058371862363688
-0.00010885087357900426
-0.00011436231021591582
-0.00011436231021591582
-0.00010885087357900426
-0.00010885087357900426
-0.0001198737468528274
-0.00012538518348973897
-0.00012538518348973897
-0.0001226294651712832
-0.0001226294651712832
-0.00012538518348973897
-0.00013089662012665053
-0.0001336523384451063
-0.00012814090180819475
-0.00012814090180819475
-0.0001336523384451063
-0.00014191949340047367
-0.00014191949340047367
-0.0001391637750820179
-0.0001336523384451063
-0.0001391637750820179
-0.00015294236667429682
-0.0001584538033112084
-0.000150186648355841
-0.00014191949340047367
-0.00014191949340047367
-0.000150186648355841
-0.00015569808499275262
-0.00015294236667429682
-0.00014743093003738526
-0.00014743093003738526
-0.00015294236667429682
-0.00015569808499275262
-0.00014467521171892948
-0.0001391637750820179
-0.0001336523384451063
-0.00014743093003738526
-0.00014467521171892948
-0.00014191949340047367
-0.0001391637750820179
-0.0001391637750820179
-0.00014467521171892948
-0.000150186648355841
-0.000150186648355841
-0.00014467521171892948
-0.0001391637750820179
-0.0001364080567635621
-0.00014191949340047367
-0.00014191949340047367
-0.00014191949340047367
-0.00014191949340047367
-0.00014191949340047367
-0.00014467521171892948
-0.00014191949340047367
-0.0001364080567635621
-0.0001391637750820179
-0.00014743093003738526
-0.00015294236667429682
-0.00014743093003738526
-0.0001391637750820179
-0.0001391637750820179
-0.00014191949340047367
-0.00014467521171892948
-0.00014191949340047367
-0.00014191949340047367
-0.0001391637750820179
-0.0001391637750820179
-0.0001364080567635621
-0.0001336523384451063
-0.0001226294651712832
-0.0001171180285343716
-0.00011160659189746003
-0.00011160659189746003
-0.00010885087357900426
-8.956084534981374e-05
-5.098078889143272e-05
-2.342360570687485e-05
-3.4446478980697995e-05
-5.3736507209888505e-05
-7.302653543907902e-05
-8.956084534981374e-05
-9.507228198672531e-05
-9.78280003051811e-05
-9.507228198672531e-05
-9.507228198672531e-05
-9.78280003051811e-05
-0.00011160659189746003
-0.00013089662012665053
-0.000150186648355841
-0.00015569808499275262
-0.000150186648355841
-0.000150186648355841
-0.00015569808499275262
-0.0001584538033112084
-0.00016396523994811996
-0.00015569808499275262
-0.00014743093003738526
-0.000150186648355841
-0.0001584538033112084
-0.0001584538033112084
-0.00014743093003738526
-0.00014191949340047367
-0.00012814090180819475
-0.00010333943694209268
-2.342360570687485e-05
0.00018601098649576498
0.0004726056916151668
0.0007343989318684667
0.000949344960708018
0.0010678408484016168
0.0008749405661097116
0.0004891400015259016
9.507228198672396e-05
-0.0001777438315403989
-0.0003348197756923787
-0.0003871784237430386
-0.0003375754940108345
-0.0002466367895017936
-0.00015294236667429682
-9.507228198672531e-05
-5.9247943846800084e-05
-5.3736507209888505e-05
-6.200366216525588e-05
-7.57822537575348e-05
-7.85379720759906e-05
-7.027081712062322e-05
-6.200366216525588e-05
-5.3736507209888505e-05
-6.200366216525588e-05
-6.200366216525588e-05
-5.3736507209888505e-05
-4.5469352254521147e-05
-4.2713633936065354e-05
-4.5469352254521147e-05
-3.995791561760957e-05
-3.169076066224221e-05
-2.6179324025330647e-05
-2.6179324025330647e-05
-2.8935042343786426e-05
-2.066788738841907e-05
-6.889295796140132e-06
-1.377859159228559e-06
1.3778591592272275e-06
6.8892957961388014e-06
1.3778591592272275e-06
1.3778591592272275e-06
9.64501411459459e-06
1.5156450751506162e-05
2.6179324025329308e-05
3.720219729915245e-05
4.546935225451981e-05
5.649222552834297e-05
6.200366216525454e-05
6.751509880216611e-05
7.02708171206219e-05
7.02708171206219e-05
8.129369039444505e-05
0.00010333943694209132
0.00011160659189745871
0.00010885087357900291
0.00011711802853437029
0.00013640805676356078
0.00015294236667429551
0.0001694766765850302
0.000172232394903486
0.00017774383154039756
0.00019427814145113231
0.000210812451361867
0.00021632388799877858
0.00022459104295414594
0.00023010247959105753
0.00023561391622796914
0.00024388107118333642
0.0002493925078202481
0.00024388107118333642
0.0002383696345464249
0.00023285819790951333
0.0002218353246356902
0.00021632388799877858
0.00020254529640649968
0.00018876670481422076
0.00018876670481422076
0.00017774383154039756
0.00016672095826657444
0.00014191949340047234
0.00012814090180819342
0.00011711802853437029
0.00010058371862363556
7.30265354390777e-05
5.373650720988717e-05
3.169076066224089e-05
1.2400732433050376e-05
1.3778591592272275e-06
-1.7912169069963278e-05
-4.2713633936065354e-05
-6.200366216525588e-05
-7.302653543907902e-05
-7.57822537575348e-05
-8.129369039444639e-05
-9.507228198672531e-05
-0.00010333943694209268
-0.00010058371862363688
-0.00010058371862363688
-0.00010333943694209268
-0.00010333943694209268
-0.00010885087357900426
-0.00010885087357900426
-0.00010058371862363688
-9.231656366826955e-05
-9.231656366826955e-05
-9.507228198672531e-05
-9.231656366826955e-05
-8.404940871290214e-05
-7.57822537575348e-05
-7.57822537575348e-05
-7.85379720759906e-05
-7.85379720759906e-05
-7.57822537575348e-05
-6.751509880216745e-05
-6.475938048371164e-05
-6.475938048371164e-05
-6.751509880216745e-05
-5.9247943846800084e-05
-5.6492225528344285e-05
-5.098078889143272e-05
-5.9247943846800084e-05
-6.751509880216745e-05
-7.027081712062322e-05
-6.200366216525588e-05
-5.9247943846800084e-05
-7.302653543907902e-05
-7.85379720759906e-05
-7.57822537575348e-05
-7.85379720759906e-05
-8.680512703135793e-05
-9.507228198672531e-05
-9.78280003051811e-05
-9.231656366826955e-05
-9.231656366826955e-05
-9.507228198672531e-05
-0.00010058371862363688
-9.78280003051811e-05
-9.507228198672531e-05
-9.507228198672531e-05
-9.78280003051811e-05
-0.00010333943694209268
-0.00011160659189746003
-0.00010333943694209268
-9.78280003051811e-05
-9.78280003051811e-05
-0.00010609515526054846
-0.00011436231021591582
-0.00010885087357900426
-0.00010609515526054846
-0.00011160659189746003
-0.0001198737468528274
-0.0001226294651712832
-0.0001198737468528274
-0.0001171180285343716
-0.00011436231021591582
-0.00011436231021591582
-0.0001171180285343716
-0.00011436231021591582
-0.00010885087357900426
-0.00010333943694209268
-0.00010609515526054846
-0.00011160659189746003
-0.00011160659189746003
-0.00010885087357900426
-0.00010333943694209268
-0.00010333943694209268
-0.00011160659189746003
-0.00011436231021591582
-0.00010885087357900426
-0.00010609515526054846
-0.00010609515526054846
-0.00011160659189746003
-0.00011160659189746003
-0.00010885087357900426
-0.00010058371862363688
-9.507228198672531e-05
-0.00010609515526054846
-0.00011436231021591582
-0.00011160659189746003
-0.00010609515526054846
-0.00010333943694209268
-0.00011160659189746003
-0.00011160659189746003
-0.00010609515526054846
-0.00010609515526054846
-0.00010333943694209268
-0.00010885087357900426
-0.00010609515526054846
-0.00010333943694209268
-9.78280003051811e-05
-9.78280003051811e-05
-9.78280003051811e-05
-9.507228198672531e-05
-9.231656366826955e-05
-7.85379720759906e-05
-7.302653543907902e-05
-7.57822537575348e-05
-7.57822537575348e-05
-6.751509880216745e-05
-5.098078889143272e-05
-2.8935042343786426e-05
1.3778591592272275e-06
6.8892957961388014e-06
-6.889295796140132e-06
-2.6179324025330647e-05
-3.995791561760957e-05
-5.098078889143272e-05
-5.9247943846800084e-05
-5.3736507209888505e-05
-4.5469352254521147e-05
-4.5469352254521147e-05
-6.751509880216745e-05
-8.956084534981374e-05
-9.78280003051811e-05
-0.00010058371862363688
-9.78280003051811e-05
-0.00010058371862363688
-0.0001198737468528274
-0.0001226294651712832
-0.00011436231021591582
-0.00010058371862363688
-0.00010058371862363688
-0.00010333943694209268
-0.00010609515526054846
-0.00010333943694209268
-0.00010609515526054846
-0.00011160659189746003
-0.00011160659189746003
-9.78280003051811e-05
-7.57822537575348e-05
-9.64501411459592e-06
0.00017498811322194178
0.0004450485084306089
0.0007068417486839086
0.0008804520027466232
0.0010154822003509568
0.0009438335240711064
0.0006269259174486908
0.00025214822613870384
-2.6179324025330647e-05
-0.00018049954985885472
-0.00027419397268635144
-0.00029348400091554195
-0.00022459104295414727
-0.00010333943694209268
-2.342360570687485e-05
1.3778591592272275e-06
-6.889295796140132e-06
-2.342360570687485e-05
-3.4446478980697995e-05
-3.4446478980697995e-05
-2.8935042343786426e-05
-2.342360570687485e-05
-1.7912169069963278e-05
-9.64501411459592e-06
1.3778591592272275e-06
1.7912169069961946e-05
2.066788738841773e-05
4.133577477683014e-06
-6.889295796140132e-06
1.5156450751506162e-05
1.7912169069961946e-05
1.3778591592272275e-06
4.133577477683014e-06
2.3423605706873515e-05
3.9957915617608246e-05
4.82250705729756e-05
3.9957915617608246e-05
4.546935225451981e-05
5.373650720988717e-05
6.200366216525454e-05
8.129369039444505e-05
7.853797207598924e-05
5.649222552834297e-05
6.751509880216611e-05
8.404940871290084e-05
9.782800030517979e-05
0.00012262946517128183
0.0001253851834897376
0.00012814090180819342
0.00014743093003738393
0.00016120952162966288
0.0001556980849927513
0.00015845380331120705
0.000172232394903486
0.00018049954985885336
0.00017774383154039756
0.0001832552681773092
0.000210812451361867
0.00023285819790951333
0.00023561391622796914
0.00024663678950179223
0.0002576596627756154
0.0002686825360494386
0.0002769496910048059
0.0002934840009155406
0.00031001831082627527
0.0003072625925078196
0.00030450687418936376
0.000301751155870908
0.000301751155870908
0.00032104118410009855
0.00033206405737392166
0.0003375754940108332
0.00032104118410009855
0.0002852168459601733
0.0002686825360494386
0.0002549039444571596
0.000263171099412527
0.00027143825436789435
0.00023010247959105753
0.00019152242313267648
0.00019978957808804387
0.0002218353246356902
0.00018876670481422076
0.00014467521171892812
0.00011711802853437029
0.00010333943694209132
8.129369039444505e-05
6.200366216525454e-05
3.444647898069667e-05
2.6179324025329308e-05
2.6179324025329308e-05
2.066788738841773e-05
-1.377859159228559e-06
-2.6179324025330647e-05
-3.720219729915378e-05
-3.4446478980697995e-05
-4.2713633936065354e-05
-4.5469352254521147e-05
-6.475938048371164e-05
-4.8225070572976926e-05
-2.342360570687485e-05
-5.3736507209888505e-05
-7.027081712062322e-05
-2.342360570687485e-05
-4.133577477684346e-06
-1.7912169069963278e-05
-2.8935042343786426e-05
-3.169076066224221e-05
-3.995791561760957e-05
-2.066788738841907e-05
-1.7912169069963278e-05
-4.8225070572976926e-05
-5.6492225528344285e-05
-5.098078889143272e-05
-3.4446478980697995e-05
-1.240073243305171e-05
9.64501411459459e-06
9.64501411459459e-06
1.3778591592272275e-06
1.5156450751506162e-05
9.64501411459459e-06
-4.133577477684346e-06
-3.169076066224221e-05
-2.342360570687485e-05
-6.889295796140132e-06
-1.377859159228559e-06
4.133577477683014e-06
-4.133577477684346e-06
-4.133577477684346e-06
-2.8935042343786426e-05
-3.995791561760957e-05
-6.200366216525588e-05
-8.404940871290214e-05
-6.751509880216745e-05
-5.9247943846800084e-05
-4.8225070572976926e-05
-1.5156450751507488e-05
-6.889295796140132e-06
-3.720219729915378e-05
-2.066788738841907e-05
-4.2713633936065354e-05
-7.85379720759906e-05
-4.5469352254521147e-05
-1.5156450751507488e-05
-5.3736507209888505e-05
-5.9247943846800084e-05
-3.169076066224221e-05
-2.6179324025330647e-05
-5.098078889143272e-05
-7.85379720759906e-05
-5.9247943846800084e-05
-5.6492225528344285e-05
-7.027081712062322e-05
-4.8225070572976926e-05
-6.751509880216745e-05
-8.680512703135793e-05
-5.6492225528344285e-05
-4.5469352254521147e-05
-6.751509880216745e-05
-9.231656366826955e-05
-9.507228198672531e-05
-5.6492225528344285e-05
-3.995791561760957e-05
-5.3736507209888505e-05
-0.00010333943694209268
-0.00014743093003738526
-0.0001198737468528274
-0.0001226294651712832
-0.00011160659189746003
-8.680512703135793e-05
-5.9247943846800084e-05
-7.85379720759906e-05
-0.0001198737468528274
-0.0001612095216296642
-0.00016396523994811996
-0.00010058371862363688
-6.475938048371164e-05
-8.129369039444639e-05
-0.00012814090180819475
-0.00012814090180819475
-0.0001364080567635621
-0.00018049954985885472
-0.00019152242313267784
-0.00014743093003738526
-6.751509880216745e-05
-4.5469352254521147e-05
-9.231656366826955e-05
-0.00012538518348973897
-0.0001226294651712832
-0.00010885087357900426
-8.680512703135793e-05
-0.00010885087357900426
-0.0001198737468528274
-8.129369039444639e-05
-8.956084534981374e-05
-0.0001198737468528274
-7.57822537575348e-05
-3.4446478980697995e-05
-4.5469352254521147e-05
-6.475938048371164e-05
-0.00010609515526054846
-0.0001198737468528274
-6.475938048371164e-05
-2.8935042343786426e-05
1.5156450751506162e-05
1.2400732433050376e-05
3.169076066224089e-05
9.64501411459459e-06
-2.8935042343786426e-05
-6.889295796140132e-06
-2.342360570687485e-05
-3.995791561760957e-05
-9.78280003051811e-05
-0.0001584538033112084
-0.00013089662012665053
-8.129369039444639e-05
-9.231656366826955e-05
-8.129369039444639e-05
-5.6492225528344285e-05
-6.475938048371164e-05
-5.6492225528344285e-05
-6.889295796140132e-06
4.133577477683014e-06
-4.8225070572976926e-05
-7.027081712062322e-05
-6.751509880216745e-05
-2.342360570687485e-05
-3.169076066224221e-05
-0.00012538518348973897
-0.00017498811322194308
-0.00015294236667429682
-8.129369039444639e-05
0.00013916377508201656
0.0004478042267490647
0.0007288874952315547
0.0010568179751277937
0.001423328511482413
0.0015032443427176307
0.001321366933699549
0.001037527946898603
0.0007371546501869223
0.00042851419851987416
0.000172232394903486
7.02708171206219e-05
5.098078889143139e-05
4.82250705729756e-05
5.373650720988717e-05
7.02708171206219e-05
0.00011160659189745871
6.200366216525454e-05
-1.7912169069963278e-05
-3.4446478980697995e-05
-1.7912169069963278e-05
-9.64501411459592e-06
1.7912169069961946e-05
3.169076066224089e-05
3.9957915617608246e-05
2.3423605706873515e-05
-1.5156450751507488e-05
1.7912169069961946e-05
1.2400732433050376e-05
2.066788738841773e-05
3.720219729915245e-05
5.098078889143139e-05
7.30265354390777e-05
4.546935225451981e-05
2.6179324025329308e-05
3.444647898069667e-05
5.373650720988717e-05
7.30265354390777e-05
5.649222552834297e-05
7.853797207598924e-05
0.00011436231021591448
0.00012262946517128183
0.00011436231021591448
0.00010885087357900291
9.507228198672396e-05
0.00010058371862363556
9.507228198672396e-05
0.00010609515526054714
0.00013089662012664922
0.00014191949340047234
0.00014743093003738393
0.00014467521171892812
0.00015018664835583973
0.0001556980849927513
0.00013916377508201656
0.00016672095826657444
0.00020254529640649968
0.00022459104295414594
0.00023010247959105753
0.0002218353246356902
0.00023010247959105753
0.00023010247959105753
0.0002549039444571596
0.0002741939726863501
0.00026592681773098274
0.00027143825436789435
0.00027970540932326175
0.00030450687418936376
0.00029623971923399637
0.0003127740291447311
0.000315529747463187
0.00032104118410009855
0.00031001831082627527
0.000301751155870908
0.0002989954375524522
0.00027970540932326175
0.0002769496910048059
0.0002769496910048059
0.0002824611276417174
0.0002576596627756154
0.00022734676127260172
0.00023010247959105753
0.00020254529640649968
0.00016672095826657444
0.00013089662012664922
7.30265354390777e-05
2.8935042343785094e-05
2.6179324025329308e-05
7.02708171206219e-05
0.00010333943694209132
7.853797207598924e-05
4.82250705729756e-05
5.098078889143139e-05
4.82250705729756e-05
2.8935042343785094e-05
4.133577477683014e-06
-9.64501411459592e-06
-1.377859159228559e-06
-2.066788738841907e-05
-4.2713633936065354e-05
-2.6179324025330647e-05
-6.889295796140132e-06
1.3778591592272275e-06
2.3423605706873515e-05
2.066788738841773e-05
6.8892957961388014e-06
1.7912169069961946e-05
2.066788738841773e-05
2.066788738841773e-05
1.5156450751506162e-05
-1.240073243305171e-05
4.133577477683014e-06
3.169076066224089e-05
2.3423605706873515e-05
3.444647898069667e-05
3.169076066224089e-05
4.133577477683014e-06
-1.377859159228559e-06
-1.377859159228559e-06
-6.889295796140132e-06
4.133577477683014e-06
1.5156450751506162e-05
4.133577477683014e-06
-4.133577477684346e-06
2.6179324025329308e-05
-9.64501411459592e-06
-1.240073243305171e-05
9.64501411459459e-06
3.444647898069667e-05
3.720219729915245e-05
2.6179324025329308e-05
1.2400732433050376e-05
-4.133577477684346e-06
9.64501411459459e-06
-4.133577477684346e-06
-2.342360570687485e-05
-3.720219729915378e-05
-2.066788738841907e-05
6.8892957961388014e-06
2.066788738841773e-05
2.3423605706873515e-05
1.3778591592272275e-06
4.133577477683014e-06
-1.377859159228559e-06
-2.342360570687485e-05
-4.5469352254521147e-05
-6.475938048371164e-05
-3.720219729915378e-05
-1.240073243305171e-05
-4.2713633936065354e-05
-2.066788738841907e-05
2.6179324025329308e-05
-4.133577477684346e-06
-6.889295796140132e-06
-2.6179324025330647e-05
-2.066788738841907e-05
-9.64501411459592e-06
-1.7912169069963278e-05
-3.720219729915378e-05
-3.720219729915378e-05
-1.7912169069963278e-05
-1.240073243305171e-05
-1.7912169069963278e-05
-6.889295796140132e-06
-4.133577477684346e-06
-2.342360570687485e-05
-4.8225070572976926e-05
-6.475938048371164e-05
-6.475938048371164e-05
-5.098078889143272e-05
-2.066788738841907e-05
4.133577477683014e-06
4.133577477683014e-06
-4.133577477684346e-06
-1.7912169069963278e-05
-6.889295796140132e-06
1.3778591592272275e-06
-2.6179324025330647e-05
-6.475938048371164e-05
-5.098078889143272e-05
-1.7912169069963278e-05
-2.8935042343786426e-05
-5.098078889143272e-05
-3.169076066224221e-05
-2.066788738841907e-05
-1.7912169069963278e-05
-1.377859159228559e-06
-2.342360570687485e-05
-6.200366216525588e-05
-6.200366216525588e-05
-2.342360570687485e-05
-2.066788738841907e-05
1.3778591592272275e-06
9.64501411459459e-06
-1.377859159228559e-06
-1.377859159228559e-06
1.5156450751506162e-05
2.3423605706873515e-05
4.546935225451981e-05
7.02708171206219e-05
6.200366216525454e-05
5.098078889143139e-05
2.8935042343785094e-05
1.5156450751506162e-05
-6.889295796140132e-06
-4.133577477684346e-06
2.066788738841773e-05
3.720219729915245e-05
4.271363393606403e-05
3.444647898069667e-05
-1.5156450751507488e-05
-3.995791561760957e-05
-4.2713633936065354e-05
1.3778591592272275e-06
4.271363393606403e-05
3.444647898069667e-05
1.2400732433050376e-05
-6.889295796140132e-06
-3.169076066224221e-05
-6.200366216525588e-05
-3.720219729915378e-05
-9.64501411459592e-06
-1.240073243305171e-05
-9.64501411459592e-06
-1.5156450751507488e-05
-1.5156450751507488e-05
-3.995791561760957e-05
-7.027081712062322e-05
6.8892957961388014e-06
0.00023010247959105753
0.0005332314946211942
0.0008997420309758136
0.001321366933699549
0.001660320286869611
0.0017099232166018147
0.0015115114976729984
0.0011615352712291134
0.0008005361715114055
0.0004808728465705341
0.00023561391622796914
0.00012814090180819342
0.00010333943694209132
0.00010333943694209132
0.00011987374685282605
9.782800030517979e-05
6.200366216525454e-05
5.373650720988717e-05
4.82250705729756e-05
5.649222552834297e-05
2.6179324025329308e-05
1.5156450751506162e-05
2.8935042343785094e-05
5.373650720988717e-05
6.751509880216611e-05
5.373650720988717e-05
5.098078889143139e-05
6.200366216525454e-05
7.30265354390777e-05
7.853797207598924e-05
5.649222552834297e-05
6.475938048371032e-05
7.02708171206219e-05
7.02708171206219e-05
6.751509880216611e-05
9.507228198672396e-05
0.00011160659189745871
0.00010058371862363556
8.956084534981241e-05
0.00010885087357900291
0.00012262946517128183
0.00011987374685282605
9.782800030517979e-05
0.00010609515526054714
0.00013640805676356078
0.0001556980849927513
0.00013916377508201656
0.00014467521171892812
0.00017774383154039756
0.00018601098649576498
0.00018049954985885336
0.000172232394903486
0.0001556980849927513
0.00017498811322194178
0.00020254529640649968
0.00022459104295414594
0.0002135681696803228
0.00020530101472495543
0.0002218353246356902
0.00024388107118333642
0.000263171099412527
0.000263171099412527
0.00026041538109407124
0.0002824611276417174
0.00030450687418936376
0.0002852168459601733
0.00027970540932326175
0.00029623971923399637
0.00032104118410009855
0.0003182854657816428
0.0002989954375524522
0.0003182854657816428
0.000315529747463187
0.0003127740291447311
0.00031001831082627527
0.0002824611276417174
0.000263171099412527
0.0002549039444571596
0.0002383696345464249
0.0002383696345464249
0.00024112535286488067
0.0002135681696803228
0.00017498811322194178
0.00017498811322194178
0.0001970338597695881
0.00016396523994811866
0.00012814090180819342
0.00010885087357900291
9.782800030517979e-05
0.00010333943694209132
8.68051270313566e-05
7.853797207598924e-05
7.02708171206219e-05
7.30265354390777e-05
3.720219729915245e-05
2.6179324025329308e-05
3.169076066224089e-05
4.271363393606403e-05
4.271363393606403e-05
4.133577477683014e-06
1.3778591592272275e-06
2.066788738841773e-05
1.5156450751506162e-05
3.169076066224089e-05
5.098078889143139e-05
6.200366216525454e-05
5.098078889143139e-05
6.751509880216611e-05
4.82250705729756e-05
9.64501411459459e-06
1.2400732433050376e-05
3.720219729915245e-05
6.475938048371032e-05
6.475938048371032e-05
2.8935042343785094e-05
3.720219729915245e-05
6.475938048371032e-05
4.82250705729756e-05
4.546935225451981e-05
5.373650720988717e-05
4.82250705729756e-05
4.82250705729756e-05
2.6179324025329308e-05
1.7912169069961946e-05
2.8935042343785094e-05
5.098078889143139e-05
6.200366216525454e-05
5.373650720988717e-05
4.82250705729756e-05
1.5156450751506162e-05
4.133577477683014e-06
1.2400732433050376e-05
4.133577477683014e-06
1.2400732433050376e-05
3.444647898069667e-05
5.649222552834297e-05
5.373650720988717e-05
3.169076066224089e-05
2.066788738841773e-05
2.8935042343785094e-05
3.720219729915245e-05
3.169076066224089e-05
-1.377859159228559e-06
-2.6179324025330647e-05
-1.5156450751507488e-05
4.133577477683014e-06
2.3423605706873515e-05
1.5156450751506162e-05
4.133577477683014e-06
-1.240073243305171e-05
1.5156450751506162e-05
2.6179324025329308e-05
6.8892957961388014e-06
1.7912169069961946e-05
-4.133577477684346e-06
-1.240073243305171e-05
6.8892957961388014e-06
1.7912169069961946e-05
4.133577477683014e-06
4.133577477683014e-06
1.5156450751506162e-05
9.64501411459459e-06
-6.889295796140132e-06
4.133577477683014e-06
6.8892957961388014e-06
1.5156450751506162e-05
2.6179324025329308e-05
2.6179324025329308e-05
6.8892957961388014e-06
-4.133577477684346e-06
-1.240073243305171e-05
-2.6179324025330647e-05
1.3778591592272275e-06
1.2400732433050376e-05
1.5156450751506162e-05
2.066788738841773e-05
6.8892957961388014e-06
9.64501411459459e-06
6.8892957961388014e-06
1.3778591592272275e-06
6.8892957961388014e-06
4.133577477683014e-06
6.8892957961388014e-06
1.5156450751506162e-05
-4.133577477684346e-06
1.3778591592272275e-06
1.5156450751506162e-05
2.066788738841773e-05
2.3423605706873515e-05
3.444647898069667e-05
4.546935225451981e-05
5.649222552834297e-05
4.82250705729756e-05
2.066788738841773e-05
1.2400732433050376e-05
2.8935042343785094e-05
5.649222552834297e-05
9.507228198672396e-05
0.00010058371862363556
7.578225375753347e-05
6.200366216525454e-05
5.373650720988717e-05
5.373650720988717e-05
5.649222552834297e-05
5.373650720988717e-05
5.9247943846798756e-05
5.9247943846798756e-05
4.82250705729756e-05
2.8935042343785094e-05
2.3423605706873515e-05
6.8892957961388014e-06
-1.7912169069963278e-05
-1.377859159228559e-06
1.2400732433050376e-05
1.3778591592272275e-06
6.8892957961388014e-06
1.7912169069961946e-05
1.5156450751506162e-05
2.6179324025329308e-05
2.8935042343785094e-05
2.3423605706873515e-05
2.3423605706873515e-05
2.3423605706873515e-05
-6.889295796140132e-06
-8.680512703135793e-05
2.6179324025329308e-05
0.000263171099412527
0.0005718115510795751
0.0009272992141603715
0.0013489241168841066
0.0016933889066910802
0.001759526146334019
0.0015445801174944675
0.0011973596093690386
0.0008391162279697863
0.0005166971847104594
0.00024663678950179223
0.00014743093003738393
0.00013089662012664922
0.00011436231021591448
0.00010609515526054714
0.00010333943694209132
9.782800030517979e-05
7.02708171206219e-05
6.200366216525454e-05
5.9247943846798756e-05
6.475938048371032e-05
4.271363393606403e-05
2.8935042343785094e-05
2.3423605706873515e-05
3.444647898069667e-05
5.098078889143139e-05
6.751509880216611e-05
7.853797207598924e-05
5.9247943846798756e-05
4.271363393606403e-05
5.373650720988717e-05
7.02708171206219e-05
6.751509880216611e-05
6.475938048371032e-05
5.098078889143139e-05
4.82250705729756e-05
9.507228198672396e-05
8.404940871290084e-05
7.30265354390777e-05
7.853797207598924e-05
9.782800030517979e-05
0.00010609515526054714
0.00010609515526054714
0.00010058371862363556
0.0001253851834897376
0.00011711802853437029
0.00011987374685282605
0.0001253851834897376
0.00014191949340047234
0.00015018664835583973
0.00015845380331120705
0.00015294236667429551
0.000172232394903486
0.00016396523994811866
0.00014191949340047234
0.00016396523994811866
0.00019978957808804387
0.00023010247959105753
0.00023010247959105753
0.00022459104295414594
0.00022459104295414594
0.00023010247959105753
0.00024112535286488067
0.0002576596627756154
0.0002549039444571596
0.000263171099412527
0.0002686825360494386
0.00027970540932326175
0.0002824611276417174
0.000263171099412527
0.000263171099412527
0.0002769496910048059
0.0002686825360494386
0.00025214822613870384
0.00022734676127260172
0.0002218353246356902
0.00022734676127260172
0.000210812451361867
0.00020254529640649968
0.00019427814145113231
0.0001970338597695881
0.00019152242313267648
0.00017774383154039756
0.00016396523994811866
0.00014191949340047234
0.00012814090180819342
0.00012262946517128183
0.00010609515526054714
9.23165636682682e-05
7.30265354390777e-05
5.649222552834297e-05
3.720219729915245e-05
4.546935225451981e-05
3.444647898069667e-05
2.6179324025329308e-05
3.169076066224089e-05
1.7912169069961946e-05
3.444647898069667e-05
5.9247943846798756e-05
5.9247943846798756e-05
1.7912169069961946e-05
2.066788738841773e-05
3.169076066224089e-05
3.444647898069667e-05
2.6179324025329308e-05
1.5156450751506162e-05
3.169076066224089e-05
5.098078889143139e-05
5.373650720988717e-05
4.271363393606403e-05
2.8935042343785094e-05
4.271363393606403e-05
4.546935225451981e-05
4.546935225451981e-05
4.546935225451981e-05
3.444647898069667e-05
3.720219729915245e-05
4.82250705729756e-05
5.649222552834297e-05
4.82250705729756e-05
2.3423605706873515e-05
1.5156450751506162e-05
3.444647898069667e-05
3.444647898069667e-05
3.444647898069667e-05
3.169076066224089e-05
2.066788738841773e-05
1.7912169069961946e-05
2.3423605706873515e-05
3.9957915617608246e-05
1.2400732433050376e-05
2.066788738841773e-05
3.720219729915245e-05
2.8935042343785094e-05
1.2400732433050376e-05
-1.240073243305171e-05
-1.7912169069963278e-05
1.3778591592272275e-06
2.066788738841773e-05
2.6179324025329308e-05
1.7912169069961946e-05
6.8892957961388014e-06
-1.377859159228559e-06
-6.889295796140132e-06
-6.889295796140132e-06
9.64501411459459e-06
6.8892957961388014e-06
1.3778591592272275e-06
4.133577477683014e-06
-1.240073243305171e-05
-2.8935042343786426e-05
-2.066788738841907e-05
-6.889295796140132e-06
6.8892957961388014e-06
1.2400732433050376e-05
-1.240073243305171e-05
-2.066788738841907e-05
-1.5156450751507488e-05
-1.377859159228559e-06
4.133577477683014e-06
-6.889295796140132e-06
-1.240073243305171e-05
-9.64501411459592e-06
4.133577477683014e-06
-1.240073243305171e-05
-2.342360570687485e-05
-2.342360570687485e-05
-1.5156450751507488e-05
-1.377859159228559e-06
4.133577477683014e-06
4.133577477683014e-06
-1.377859159228559e-06
-9.64501411459592e-06
-9.64501411459592e-06
6.8892957961388014e-06
-4.133577477684346e-06
-9.64501411459592e-06
-4.133577477684346e-06
-9.64501411459592e-06
-1.377859159228559e-06
9.64501411459459e-06
4.133577477683014e-06
4.133577477683014e-06
-9.64501411459592e-06
-1.240073243305171e-05
-2.342360570687485e-05
-6.889295796140132e-06
-1.377859159228559e-06
-1.377859159228559e-06
9.64501411459459e-06
3.169076066224089e-05
3.720219729915245e-05
2.8935042343785094e-05
2.3423605706873515e-05
2.066788738841773e-05
3.169076066224089e-05
4.546935225451981e-05
5.9247943846798756e-05
7.853797207598924e-05
7.02708171206219e-05
4.546935225451981e-05
3.169076066224089e-05
4.546935225451981e-05
5.373650720988717e-05
4.82250705729756e-05
3.720219729915245e-05
2.8935042343785094e-05
1.5156450751506162e-05
9.64501411459459e-06
-1.5156450751507488e-05
-9.64501411459592e-06
4.133577477683014e-06
1.3778591592272275e-06
-4.133577477684346e-06
-1.240073243305171e-05
-6.889295796140132e-06
6.8892957961388014e-06
-1.377859159228559e-06
-4.133577477684346e-06
4.133577477683014e-06
6.8892957961388014e-06
-9.64501411459592e-06
-2.6179324025330647e-05
-4.2713633936065354e-05
-4.2713633936065354e-05
2.8935042343785094e-05
0.0002218353246356902
0.0005222086213473709
0.0008832077210650791
0.001271764003967345
0.0016217402304112296
0.0017044117799649037
0.001500488624399175
0.0011753138628213923
0.0008391162279697863
0.0005194529030289152
0.00022734676127260172
0.00011987374685282605
0.00011987374685282605
0.00010885087357900291
9.507228198672396e-05
9.507228198672396e-05
8.956084534981241e-05
6.200366216525454e-05
3.9957915617608246e-05
5.098078889143139e-05
5.373650720988717e-05
3.444647898069667e-05
3.720219729915245e-05
3.720219729915245e-05
3.9957915617608246e-05
5.373650720988717e-05
5.098078889143139e-05
4.271363393606403e-05
5.9247943846798756e-05
7.02708171206219e-05
7.578225375753347e-05
6.475938048371032e-05
6.200366216525454e-05
5.649222552834297e-05
5.649222552834297e-05
7.853797207598924e-05
8.129369039444505e-05
8.129369039444505e-05
8.68051270313566e-05
9.782800030517979e-05
9.782800030517979e-05
9.507228198672396e-05
0.00010058371862363556
0.00011987374685282605
0.00013365233844510492
0.00012262946517128183
0.00011987374685282605
0.00012262946517128183
0.00012262946517128183
0.00012814090180819342
0.00014191949340047234
0.00015294236667429551
0.00015845380331120705
0.00016396523994811866
0.00017774383154039756
0.00018876670481422076
0.00018876670481422076
0.00017498811322194178
0.00018049954985885336
0.00019978957808804387
0.00022734676127260172
0.00022734676127260172
0.0002218353246356902
0.00023010247959105753
0.0002218353246356902
0.00021632388799877858
0.0002218353246356902
0.00023285819790951333
0.0002383696345464249
0.0002493925078202481
0.00024112535286488067
0.00022734676127260172
0.0002135681696803228
0.00022459104295414594
0.00023010247959105753
0.0002218353246356902
0.00021632388799877858
0.00019978957808804387
0.00018876670481422076
0.00017774383154039756
0.00017498811322194178
0.00019152242313267648
0.00017498811322194178
0.00014191949340047234
0.00011711802853437029
0.00010609515526054714
0.00011436231021591448
0.00010058371862363556
7.578225375753347e-05
6.475938048371032e-05
6.475938048371032e-05
5.098078889143139e-05
4.82250705729756e-05
4.546935225451981e-05
3.169076066224089e-05
2.8935042343785094e-05
3.444647898069667e-05
3.9957915617608246e-05
3.444647898069667e-05
2.6179324025329308e-05
2.6179324025329308e-05
2.6179324025329308e-05
3.444647898069667e-05
3.720219729915245e-05
3.169076066224089e-05
2.6179324025329308e-05
2.8935042343785094e-05
2.6179324025329308e-05
2.6179324025329308e-05
1.7912169069961946e-05
2.3423605706873515e-05
3.444647898069667e-05
3.720219729915245e-05
2.8935042343785094e-05
3.169076066224089e-05
3.9957915617608246e-05
4.546935225451981e-05
3.444647898069667e-05
2.066788738841773e-05
1.2400732433050376e-05
1.2400732433050376e-05
2.6179324025329308e-05
2.8935042343785094e-05
3.169076066224089e-05
1.7912169069961946e-05
1.7912169069961946e-05
1.5156450751506162e-05
1.5156450751506162e-05
9.64501411459459e-06
1.5156450751506162e-05
2.3423605706873515e-05
1.5156450751506162e-05
2.3423605706873515e-05
2.066788738841773e-05
6.8892957961388014e-06
-1.377859159228559e-06
1.2400732433050376e-05
9.64501411459459e-06
-1.377859159228559e-06
-9.64501411459592e-06
-1.240073243305171e-05
-9.64501411459592e-06
4.133577477683014e-06
2.066788738841773e-05
9.64501411459459e-06
-6.889295796140132e-06
-9.64501411459592e-06
-6.889295796140132e-06
-4.133577477684346e-06
-4.133577477684346e-06
-1.5156450751507488e-05
-1.5156450751507488e-05
-1.377859159228559e-06
1.3778591592272275e-06
-6.889295796140132e-06
-1.5156450751507488e-05
-2.6179324025330647e-05
4.133577477683014e-06
2.066788738841773e-05
4.133577477683014e-06
-9.64501411459592e-06
-6.889295796140132e-06
-1.5156450751507488e-05
-9.64501411459592e-06
-1.377859159228559e-06
-2.066788738841907e-05
-3.169076066224221e-05
-4.133577477684346e-06
-9.64501411459592e-06
-2.342360570687485e-05
-2.066788738841907e-05
-1.377859159228559e-06
-1.377859159228559e-06
-1.7912169069963278e-05
-1.240073243305171e-05
-2.342360570687485e-05
-2.8935042343786426e-05
-1.7912169069963278e-05
-6.889295796140132e-06
-6.889295796140132e-06
-2.342360570687485e-05
-2.342360570687485e-05
-1.5156450751507488e-05
-4.133577477684346e-06
-1.5156450751507488e-05
-6.889295796140132e-06
-1.377859159228559e-06
4.133577477683014e-06
9.64501411459459e-06
6.8892957961388014e-06
-4.133577477684346e-06
9.64501411459459e-06
2.3423605706873515e-05
3.720219729915245e-05
4.546935225451981e-05
4.82250705729756e-05
5.373650720988717e-05
4.82250705729756e-05
3.9957915617608246e-05
3.444647898069667e-05
2.6179324025329308e-05
2.8935042343785094e-05
3.720219729915245e-05
3.720219729915245e-05
2.8935042343785094e-05
9.64501411459459e-06
-9.64501411459592e-06
-1.240073243305171e-05
-2.066788738841907e-05
-2.6179324025330647e-05
-1.7912169069963278e-05
-1.5156450751507488e-05
-1.7912169069963278e-05
-2.342360570687485e-05
-6.889295796140132e-06
-6.889295796140132e-06
-6.889295796140132e-06
-2.342360570687485e-05
-2.342360570687485e-05
-1.7912169069963278e-05
-1.5156450751507488e-05
-4.5469352254521147e-05
-6.751509880216745e-05
-2.6179324025330647e-05
0.00014191949340047234
0.0004340256351567857
0.0007702232700083917
0.0011091766231784534
0.0014784428778515288
0.0016492974135957881
0.001500488624399175
0.0011863367360952157
0.0005139414663920035
0.00023561391622796914
9.782800030517979e-05
9.23165636682682e-05
9.507228198672396e-05
9.23165636682682e-05
7.853797207598924e-05
6.475938048371032e-05
4.546935225451981e-05
2.6179324025329308e-05
2.6179324025329308e-05
2.8935042343785094e-05
3.169076066224089e-05
2.066788738841773e-05
4.133577477683014e-06
-1.377859159228559e-06
-1.377859159228559e-06
6.8892957961388014e-06
3.444647898069667e-05
3.169076066224089e-05
3.444647898069667e-05
3.169076066224089e-05
2.6179324025329308e-05
2.6179324025329308e-05
2.8935042343785094e-05
2.8935042343785094e-05
4.546935225451981e-05
5.649222552834297e-05
5.098078889143139e-05
3.9957915617608246e-05
2.8935042343785094e-05
3.444647898069667e-05
4.82250705729756e-05
6.200366216525454e-05
7.578225375753347e-05
7.578225375753347e-05
8.129369039444505e-05
7.853797207598924e-05
7.02708171206219e-05
8.129369039444505e-05
8.129369039444505e-05
8.956084534981241e-05
0.00010333943694209132
0.0001253851834897376
0.0001253851834897376
0.0001253851834897376
0.00012262946517128183
0.00014191949340047234
0.00015018664835583973
0.00015018664835583973
0.00014467521171892812
0.00015845380331120705
0.00016672095826657444
0.00016672095826657444
0.000172232394903486
0.00017498811322194178
0.00017774383154039756
0.00018876670481422076
0.0001970338597695881
0.00018049954985885336
0.00018049954985885336
0.00018049954985885336
0.0001832552681773092
0.00018876670481422076
0.00018601098649576498
0.0001694766765850302
0.00015294236667429551
0.00016396523994811866
0.00017774383154039756
0.00017774383154039756
0.00015018664835583973
0.00012262946517128183
0.00012262946517128183
0.00014191949340047234
0.00014191949340047234
0.00011160659189745871
7.578225375753347e-05
7.02708171206219e-05
7.578225375753347e-05
7.578225375753347e-05
3.9957915617608246e-05
2.066788738841773e-05
1.7912169069961946e-05
9.64501411459459e-06
4.133577477683014e-06
-1.377859159228559e-06
1.3778591592272275e-06
1.3778591592272275e-06
1.3778591592272275e-06
-6.889295796140132e-06
-1.240073243305171e-05
-1.240073243305171e-05
-1.7912169069963278e-05
-1.5156450751507488e-05
-1.240073243305171e-05
-1.7912169069963278e-05
-2.342360570687485e-05
-6.889295796140132e-06
4.133577477683014e-06
4.133577477683014e-06
-4.133577477684346e-06
-2.342360570687485e-05
-2.6179324025330647e-05
-9.64501411459592e-06
-6.889295796140132e-06
-9.64501411459592e-06
-9.64501411459592e-06
-9.64501411459592e-06
-1.377859159228559e-06
-1.377859159228559e-06
-4.133577477684346e-06
-2.6179324025330647e-05
-4.2713633936065354e-05
-4.5469352254521147e-05
-3.720219729915378e-05
-2.8935042343786426e-05
-3.720219729915378e-05
-3.720219729915378e-05
-2.342360570687485e-05
-2.066788738841907e-05
-3.995791561760957e-05
-4.5469352254521147e-05
-4.5469352254521147e-05
-4.5469352254521147e-05
-3.995791561760957e-05
-2.342360570687485e-05
-1.7912169069963278e-05
-3.995791561760957e-05
-5.3736507209888505e-05
-4.2713633936065354e-05
-3.4446478980697995e-05
-2.342360570687485e-05
-5.6492225528344285e-05
-5.6492225528344285e-05
-5.098078889143272e-05
-4.8225070572976926e-05
-5.9247943846800084e-05
-6.475938048371164e-05
-6.751509880216745e-05
-6.200366216525588e-05
-5.3736507209888505e-05
-5.3736507209888505e-05
-6.751509880216745e-05
-7.302653543907902e-05
-7.027081712062322e-05
-7.027081712062322e-05
-6.475938048371164e-05
-5.9247943846800084e-05
-5.9247943846800084e-05
-7.85379720759906e-05
-8.404940871290214e-05
-6.751509880216745e-05
-5.9247943846800084e-05
-6.200366216525588e-05
-5.9247943846800084e-05
-5.098078889143272e-05
-5.3736507209888505e-05
-7.027081712062322e-05
-8.129369039444639e-05
-7.57822537575348e-05
-6.751509880216745e-05
-7.302653543907902e-05
-8.129369039444639e-05
-7.85379720759906e-05
-7.027081712062322e-05
-7.027081712062322e-05
-6.751509880216745e-05
-5.6492225528344285e-05
-5.6492225528344285e-05
-5.6492225528344285e-05
-5.9247943846800084e-05
-5.098078889143272e-05
-6.475938048371164e-05
-8.404940871290214e-05
-8.956084534981374e-05
-7.027081712062322e-05
-4.2713633936065354e-05
-3.720219729915378e-05
-5.098078889143272e-05
-6.200366216525588e-05
-6.200366216525588e-05
-5.6492225528344285e-05
-5.3736507209888505e-05
-5.098078889143272e-05
-2.066788738841907e-05
2.6179324025329308e-05
2.3423605706873515e-05
-1.377859159228559e-06
-2.8935042343786426e-05
-3.4446478980697995e-05
-3.720219729915378e-05
-2.066788738841907e-05
-9.64501411459592e-06
-2.342360570687485e-05
-4.5469352254521147e-05
-5.098078889143272e-05
-5.3736507209888505e-05
-7.302653543907902e-05
-7.302653543907902e-05
-7.57822537575348e-05
-6.751509880216745e-05
-6.475938048371164e-05
-7.57822537575348e-05
-7.57822537575348e-05
-7.85379720759906e-05
-6.751509880216745e-05
-5.6492225528344285e-05
-6.475938048371164e-05
-8.680512703135793e-05
-0.00010333943694209268
-0.00010058371862363688
-7.57822537575348e-05
2.6179324025329308e-05
0.00023561391622796914
0.0005304757763027383
0.0008694291294728002
0.001244206820782787
0.001530801525902189
0.0015197786526283655
0.0012745197222858006
0.0009355663691157388
0.0006021244525825888
0.00031001831082627527
8.129369039444505e-05
1.5156450751506162e-05
2.8935042343785094e-05
4.271363393606403e-05
3.9957915617608246e-05
2.066788738841773e-05
-1.240073243305171e-05
-2.342360570687485e-05
-2.342360570687485e-05
-2.8935042343786426e-05
-3.169076066224221e-05
-3.995791561760957e-05
-2.8935042343786426e-05
-2.8935042343786426e-05
-3.169076066224221e-05
-3.720219729915378e-05
-3.720219729915378e-05
-2.066788738841907e-05
-6.889295796140132e-06
6.8892957961388014e-06
1.3778591592272275e-06
-4.133577477684346e-06
-2.8935042343786426e-05
-3.169076066224221e-05
-6.889295796140132e-06
-1.377859159228559e-06
-6.889295796140132e-06
9.64501411459459e-06
1.2400732433050376e-05
1.5156450751506162e-05
1.7912169069961946e-05
1.7912169069961946e-05
1.2400732433050376e-05
1.2400732433050376e-05
2.066788738841773e-05
2.8935042343785094e-05
2.6179324025329308e-05
3.169076066224089e-05
3.720219729915245e-05
5.373650720988717e-05
5.373650720988717e-05
6.475938048371032e-05
7.02708171206219e-05
8.129369039444505e-05
9.507228198672396e-05
9.23165636682682e-05
8.956084534981241e-05
9.507228198672396e-05
0.00010609515526054714
0.00011160659189745871
0.00012814090180819342
0.00012814090180819342
0.00012814090180819342
0.00013089662012664922
0.00013916377508201656
0.00013640805676356078
0.00012814090180819342
0.00012262946517128183
0.00015018664835583973
0.00016396523994811866
0.00015294236667429551
0.00013916377508201656
0.00012814090180819342
0.00013365233844510492
0.00013640805676356078
0.00013916377508201656
0.0001253851834897376
0.0001253851834897376
0.00013365233844510492
0.00013640805676356078
0.00011987374685282605
0.00010058371862363556
8.68051270313566e-05
6.475938048371032e-05
5.649222552834297e-05
6.475938048371032e-05
5.9247943846798756e-05
3.720219729915245e-05
1.2400732433050376e-05
-4.133577477684346e-06
-4.133577477684346e-06
-1.5156450751507488e-05
-3.169076066224221e-05
-3.995791561760957e-05
-3.995791561760957e-05
-2.8935042343786426e-05
-3.720219729915378e-05
-5.3736507209888505e-05
