0.004010948012512397
0.0040054365758754856
0.00402197088578622
0.004013703730830853
0.004038505195696954
0.004052283787289233
0.004046772350652321
0.004019215167467765
0.003988902265964752
0.003991657984283206
0.003997169420920119
0.004008192294193942
0.004008192294193942
0.004035749477378499
0.004038505195696954
0.003994413702601662
0.003988902265964752
0.0039392993362325456
0.003920009308003357
0.0039448107728694585
0.003986146547646295
0.0039448107728694585
0.003917253589684901
0.003917253589684901
0.0039392993362325456
0.0039007192797741656
0.0038869406881818875
0.0039034749980926212
0.003895207843137254
0.0038896964065003423
0.0038731620965896077
0.0038979635614557096
0.0038731620965896077
0.0038538720683604162
0.0038538720683604162
0.0038924521248187983
0.0039392993362325456
0.0039089864347295325
0.0038593835049973288
0.0038704063782711525
0.0038924521248187983
0.003895207843137254
0.0038456049134050494
0.0038070248569466686
0.003809780575265125
0.003801513420309757
0.0038208034485389475
0.0038483606317235063
0.003699551842526893
0.0037243533073929944
0.0037215975890745397
0.003713330434119172
0.0037243533073929944
0.003713330434119172
0.0037215975890745397
0.003716086152437628
0.0036885289692530697
0.0036885289692530697
0.0036967961242084365
0.003685773250934614
0.0037519104905775523
0.003798757701991301
0.00374088761730373
0.0037794676737621115
0.003947566491187914
0.004198336858167391
0.004523511619745174
0.004832152071412222
0.004840419226367589
0.0044904429999237045
0.0038483606317235063
0.0032145454184786745
0.0029968436713206674
0.0031043166857404434
0.0032503697566185997
0.003333041306172274
0.0034267357289997705
0.0035121629968719
0.0035534987716487366
0.003575544518196383
0.003614124574654764
0.0035727887998779273
0.003578300236514838
0.003603101701380941
0.0036113688563363076
0.003633414602883954
0.003671994659342336
0.0036775060959792476
0.0036912846875715257
0.003671994659342336
0.003647193194476233
0.0036361703212024095
0.003597590264744029
0.0036775060959792476
0.0037215975890745397
0.003699551842526893
0.0037105747158007163
0.0036747503776607916
0.0036223917296101305
0.0035810559548332937
0.003605857419699397
0.0036223917296101305
0.0036223917296101305
0.0036113688563363076
0.003619636011291675
0.003619636011291675
0.0036389260395208655
0.003627903166247042
0.0036389260395208655
0.0036912846875715257
0.003713330434119172
0.0036912846875715257
0.0036775060959792476
0.0036802618142977033
0.003663727504386968
0.0036747503776607916
0.0036582160677500553
0.003647193194476233
0.0036967961242084365
0.0037105747158007163
0.0037078189974822603
0.003713330434119172
0.0037078189974822603
0.0036940404058899805
0.0037215975890745397
0.003716086152437628
0.003699551842526893
0.003663727504386968
0.003685773250934614
0.0037519104905775523
0.003713330434119172
0.003685773250934614
0.0036885289692530697
0.003685773250934614
0.003702307560845349
0.0037105747158007163
0.0036747503776607916
0.0036168802929732197
0.003627903166247042
0.0036912846875715257
0.003729864744029906
0.0037326204623483626
0.0036912846875715257
0.0036664832227054243
0.0035865673914702054
0.00358381167315175
0.003619636011291675
0.0036223917296101305
0.0036361703212024095
0.003647193194476233
0.00358381167315175
0.0034983844052796204
0.0034790943770504307
0.0034846058136873415
0.003457048630502783
0.0034294914473182257
0.003379888517586021
0.003324774151216906
0.003341308461127641
0.003335797024490729
0.003294461249713893
0.003275171221484702
0.0032145454184786745
0.0032090339818417633
0.003258636911573967
0.0032503697566185997
0.0032200568551155866
0.0031897439536125722
0.003181476798657205
0.0032145454184786745
0.003261392629892424
0.0032724155031662455
0.003264148348210879
0.0032338354467078647
0.003192499671931028
0.0031621867704280148
0.00314565246051728
0.0031153395590142663
0.0031566753337911035
0.003181476798657205
0.0031732096437018377
0.0031704539253833816
0.0031732096437018377
0.0031621867704280148
0.0031566753337911035
0.0031484081788357354
0.003142896742198824
0.003159431052109559
0.0031401410238803685
0.0031043166857404434
0.003131873868925001
0.003131873868925001
0.003098805249103532
0.003079515220874341
0.003109828122377354
0.0030877823758297084
0.003057469474326695
0.0030547137560082397
0.0030905380941481644
0.0030740037842374294
0.003062980910963606
0.003062980910963606
0.0030354237277790477
0.0030326680094605925
0.0030381794460975038
0.0030271565728236813
0.0030133779812314024
0.0030547137560082397
0.0030712480659189734
0.003062980910963606
0.003062980910963606
0.0030740037842374294
0.0030960495307850756
0.0030767595025558846
0.0030326680094605925
0.0030326680094605925
0.00302164513618677
0.002972042206454565
0.002966530769817654
0.002966530769817654
0.0029747979247730207
0.0029747979247730207
0.002905904966811627
0.0028976378118562595
0.0029086606851300824
0.0029031492484931708
0.0028177219806210414
0.002801187670710307
0.0028177219806210414
0.002773630487525749
0.0028177219806210414
0.002825989135576409
0.0028177219806210414
0.0028590577553978787
0.0028232334172579527
0.002814966262302585
0.0027929205157549396
0.002806699107347218
0.002842523445487143
0.002966530769817654
0.0031787210803387498
0.003457048630502783
0.0036499489127946884
0.0035865673914702054
0.003242102601663233
0.0027019818112458977
0.002219731105516136
0.0021260366826886382
0.002194929640650033
0.002255555443656061
0.0023602727397573804
0.002451211444266422
0.00265513459983215
0.0027047375295643546
0.002732294712748912
0.002820477698939497
0.0029196835584039053
0.00300235510795758
0.0030106222629129463
0.0030161336995498575
0.003043690882734416
0.0030326680094605925
0.003062980910963606
0.0030712480659189734
0.003079515220874341
0.0031346295872434564
0.0031842325169756614
0.0032365911650263208
0.0032200568551155866
0.0033027284046692595
0.003374377080949111
0.0033605984893568313
0.0033523313344014645
0.003327529869535362
0.003305484122987716
0.0032861940947585253
0.0032531254749370558
0.0032062782635233072
0.0032448583199816885
0.003228324010070953
0.003131873868925001
0.0030822709391927967
0.003057469474326695
0.0030326680094605925
0.0030133779812314024
0.002972042206454565
0.0029003935301747147
0.0028893706569008922
0.002925194995040817
0.0029610193331807417
0.0029885765163653005
0.002985820798046844
0.0029968436713206674
0.002958263614862286
0.0029830650797283893
0.002991332234683756
0.00300235510795758
0.0029968436713206674
0.0029995993896391225
0.0030078665445944903
0.003029912291142137
0.0030271565728236813
0.0030244008545052257
0.003018889417868314
0.0029968436713206674
0.0030078665445944903
0.0030133779812314024
0.0029775536430914767
0.0029527521782253753
0.0029196835584039053
0.0029307064316777287
0.0029307064316777287
0.00288385922026398
0.0028618134737163335
0.0028866149385824358
0.0029086606851300824
0.002905904966811627
0.0028618134737163335
0.002814966262302585
0.0028094548256656733
0.0027791419241626598
0.002806699107347218
0.0028232334172579527
0.0028480348821240545
0.002845279163805599
0.002842523445487143
0.0028507906004425106
0.0028563020370794222
0.0028563020370794222
0.0028315005722133204
0.002820477698939497
0.002787409079118028
0.002803943389028762
0.0028315005722133204
0.0027570961776150144
0.0026744246280613407
0.0027102489662012654
0.0027378061493858238
0.0027102489662012654
0.0026992260929274425
0.0027212718394750883
0.002735050431067368
0.0027240275577935453
0.0027185161211566327
0.002729538994430456
0.002732294712748912
0.0027157604028381775
0.0027378061493858238
0.002762607614251925
0.00274056186770428
0.0026799360646982523
0.002627577416647592
0.0025889973601892105
0.0025504173037308306
0.0025008143739986255
0.0024594785992217887
0.0024071199511711294
0.0023768070496681154
0.0023492498664835575
0.0023106698100251763
0.0023216926832989996
0.0023134255283436323
0.0023161812466620884
0.0023354712748912786
0.0023492498664835575
0.002318936964980544
0.0022941355001144417
0.002283112626840619
0.002283112626840619
0.0023354712748912786
0.002332715556572822
0.0023134255283436323
0.0023244484016174557
0.0023216926832989996
0.002305158373388265
0.0023299598382543678
0.0023602727397573804
0.0023602727397573804
0.0023520055848020127
0.0023520055848020127
0.0023437384298466463
0.0023602727397573804
0.0023437384298466463
0.0023464941481651015
0.0023905856412603944
0.0024208985427634083
0.0024098756694895846
0.002412631387808041
0.002357517021438925
0.002368539894712748
0.002379562767986571
0.0023602727397573804
0.0023079140917067207
0.0023024026550698094
0.0022941355001144417
0.002299646936751353
0.0022968912184328978
0.0023024026550698094
0.002291379781795986
0.0023354712748912786
0.0024016085145342177
0.0023740513313496602
0.002418142824444952
0.0024484557259479662
0.0023905856412603944
0.0023823184863050275
0.002368539894712748
0.0023823184863050275
0.0024208985427634083
0.0024236542610818635
0.002442944289311054
0.00249805865568017
0.0026000202334630343
0.0028507906004425106
0.0031346295872434564
0.0032531254749370558
0.0031070724040589
0.002693714656290531
0.002139815274280918
0.0017788161745632097
0.00172645752651255
0.0017677933012893864
0.001853220569161516
0.001938647837033645
0.001993762203402761
0.0020378536964980537
0.0021067466544594485
0.0021701281757839316
0.002219731105516136
0.002230753978789959
0.0022031967956054007
0.002192173922331578
0.0021343038376440064
0.0021287924010070947
0.002139815274280918
0.0021591053025101082
0.0021508381475547405
0.0021012352178225373
0.0020571437247272444
0.002040609414816509
0.0020626551613641565
0.002095723781185625
0.0020874566262302574
0.002095723781185625
0.00207918947127489
0.002015807949950408
0.002032342259861142
0.0020984794995040803
0.0020984794995040803
0.0020433651331349654
0.002040609414816509
0.0020461208514534206
0.0021067466544594485
0.002115013809414816
0.00211225809109636
0.002103990936140992
0.0021205252460517274
0.0021315481193255503
0.00211225809109636
0.002123280964370183
0.002161861020828564
0.0021563495841916518
0.0021480824292362853
0.0021646167391470203
0.0021894182040131226
0.0021646167391470203
0.0021508381475547405
0.0022004410772869447
0.0022362654154268703
0.002283112626840619
0.0023024026550698094
0.0023079140917067207
0.002255555443656061
0.002219731105516136
0.002230753978789959
0.0022472882887006936
0.0022638225986114278
0.0022335096971084142
0.0022059525139238568
0.0022417768520637815
0.0022610668802929726
0.002230753978789959
0.0022335096971084142
0.002230753978789959
0.0022224868238345918
0.0021894182040131226
0.002139815274280918
0.0021343038376440064
0.0021205252460517274
0.002092968062867169
0.0020571437247272444
0.002095723781185625
0.0021425709925993732
0.0021067466544594485
0.0020654108796826116
0.0020350979781795973
0.0020268308232242304
0.002021319386587319
0.0019910064850843048
0.0019827393301289375
0.002018563668268863
0.002021319386587319
0.0019331364003967336
0.0019166020904859992
0.001908334935530632
0.0019221135271229105
0.001957937865262836
0.0019221135271229105
0.0019028234988937198
0.001891800625619897
0.001897312062256809
0.001905579217212176
0.001891800625619897
0.001900067780575264
0.0019166020904859992
0.0019276249637598223
0.001905579217212176
0.001905579217212176
0.001897312062256809
0.0019166020904859992
0.0019276249637598223
0.001938647837033645
0.0019441592736705567
0.0019496707103074684
0.001897312062256809
0.001891800625619897
0.0019303806820782777
0.001960693583581292
0.0019331364003967336
0.0018725105973907065
0.0018614877241168832
0.0018807777523460734
0.0018614877241168832
0.0018504648508430599
0.0018477091325246043
0.0018752663157091622
0.0018780220340276189
0.0018311748226138695
0.0017981062027924003
0.001773304737926298
0.0017788161745632097
0.001795350484473944
0.0018146405127031347
0.001833930540932325
0.0018504648508430599
0.0018118847943846788
0.001800861921110856
0.0018477091325246043
0.0018669991607537949
0.0018587320057984274
0.001853220569161516
0.0018366862592507814
0.0018366862592507814
0.001853220569161516
0.0018394419775692368
0.0017898390478370328
0.0018173962310215907
0.0018614877241168832
0.0018752663157091622
0.001897312062256809
0.0018835334706645297
0.0018780220340276189
0.0018725105973907065
0.0018394419775692368
0.0018614877241168832
0.0018807777523460734
0.0018449534142061489
0.0017981062027924003
0.0018091290760662239
0.001822907667658502
0.0018036176394293122
0.0017512589913786518
0.001759526146334019
0.0017815718928816655
0.0017815718928816655
0.0017567704280155635
0.001748503273060196
0.0017650375829709308
0.0017512589913786518
0.001696144625009536
0.0016851217517357133
0.001720946089875638
0.0017402361181048285
0.0017319689631494616
0.0017512589913786518
0.0018256633859769582
0.0019303806820782777
0.002095723781185625
0.002299646936751353
0.00251734868390936
0.0026193102616922244
0.002357517021438925
0.0013158554970626377
0.0010733522850385282
0.0011064209048599978
0.001180825299458304
0.0013103440604257258
0.0014371071030746922
0.0015390686808575565
0.0016244959487296858
0.0016492974135957881
0.0017071674982833593
0.0017319689631494616
0.0017292132448310056
0.0017099232166018147
0.0017181903715571825
0.001773304737926298
0.001800861921110856
0.001759526146334019
0.001759526146334019
0.0018091290760662239
0.001806373357747768
0.0017374803997863729
0.0017457475547417404
0.0017402361181048285
0.0017099232166018147
0.0016823660334172573
0.0016851217517357133
0.001660320286869611
0.0016933889066910802
0.0017071674982833593
0.001720946089875638
0.0017347246814679172
0.0017429918364232845
0.0017126789349202708
0.001671343160143434
0.0017044117799649037
0.0017457475547417404
0.0017374803997863729
0.0017016560616464477
0.0017402361181048285
0.0017292132448310056
0.001759526146334019
0.001759526146334019
0.0017567704280155635
0.0017760604562447539
0.001759526146334019
0.0017677933012893864
0.0018173962310215907
0.0018146405127031347
0.001795350484473944
0.0017650375829709308
0.0017650375829709308
0.0018173962310215907
0.0018201519493400466
0.0018284191042954136
0.0018725105973907065
0.0018697548790722507
0.001864243442435339
0.0018697548790722507
0.0018449534142061489
0.0018504648508430599
0.001833930540932325
0.001806373357747768
0.0018173962310215907
0.0018284191042954136
0.0018091290760662239
0.0017981062027924003
0.001795350484473944
0.0018173962310215907
0.001833930540932325
0.0017622818646524754
0.001773304737926298
0.0017788161745632097
0.0017457475547417404
0.00172645752651255
0.00172645752651255
0.0017622818646524754
0.0017788161745632097
0.0017154346532387268
0.001657564568551155
0.0016327631036850527
0.0015721373006790259
0.001558358709086747
0.0015776487373159373
0.0015886716105897604
0.0015969387655451277
0.0015886716105897604
0.0015969387655451277
0.0015776487373159373
0.0015776487373159373
0.0015363129625391005
0.0015528472724498353
0.0015721373006790259
0.0015363129625391005
0.001500488624399175
0.0014977329060807197
0.001530801525902189
0.0014619085679407943
0.0014563971313038828
0.001500488624399175
0.001530801525902189
0.0015473358358129234
0.001607961638818951
0.0016768545967803456
0.001696144625009536
0.0017429918364232845
0.0018173962310215907
0.001853220569161516
0.0019110906538490876
0.0019772278934920263
0.001897312062256809
0.0017760604562447539
0.0016685874418249785
0.0016162287937743183
0.0015335572442206446
0.0014067942015716782
0.0013048326237888143
0.0012359396658274198
0.0012414511024643313
0.0012028710460059502
0.0011146880598153653
0.0010733522850385282
0.0010430393835355147
0.000985169298847943
0.0009410778057526506
0.0009465892423895617
0.000960367833981841
0.0009906807354848547
0.0010044593270771337
0.001037527946898603
0.0010430393835355147
0.0009769021438925758
0.0009383220874341949
0.0009465892423895617
0.0009438335240711064
0.0009796578622110316
0.0009934364538033101
0.001128466651407644
0.001178069581139848
0.0012359396658274198
0.0012745197222858006
0.0013020769054703587
0.001318611215381093
0.0013819927367055766
0.0013875041733424878
0.0014040384832532226
0.0014095499198901345
0.001376481300068665
0.0013571912718394743
0.0013461683985656512
0.0013709698634317533
0.0014205727931639574
0.0014619085679407943
0.001453641412985427
0.0014315956664377805
0.0013985270466163114
0.0013930156099793995
0.0013985270466163114
0.0013902598916609437
0.001401282764934767
0.001423328511482413
0.0014040384832532226
0.0013571912718394743
0.0013902598916609437
0.001401282764934767
0.0014095499198901345
0.0014784428778515288
0.0016327631036850527
0.001864243442435339
0.002123280964370183
0.0023712956130312038
0.002327204119935911
0.0018945563439383528
0.0013103440604257258
0.0008501391012436096
0.0007343989318684667
0.0008115590447852286
0.0009300549324788276
0.0010237493553063243
0.0011339780880445555
0.0012386953841458756
0.0012882983138780798
0.001332389806973372
0.00135994699015793
0.0013709698634317533
0.0013544355535210185
0.0013434126802471958
0.0013875041733424878
0.0014371071030746922
0.0014674200045777057
0.0014508856946669714
0.0014453742580300595
0.0014205727931639574
0.0014178170748455018
0.0014288399481193247
0.001379237018387121
0.0013819927367055766
0.0014205727931639574
0.0014398628213931478
0.0014591528496223384
0.0015115114976729984
0.0015225343709468217
0.001453641412985427
0.0014123056382085901
0.0014040384832532226
0.0014371071030746922
0.0014481299763485153
0.0014426185397116034
0.0014178170748455018
0.0014426185397116034
0.0014977329060807197
0.0015225343709468217
0.001514267215991454
0.0014867100328068963
0.0014508856946669714
0.0014674200045777057
0.0014784428778515288
0.0014756871595330732
0.001489465751125352
0.001514267215991454
0.0015225343709468217
0.0015252900892652771
0.0014729314412146172
0.0014288399481193247
0.0014756871595330732
0.0015060000610360867
0.00151702293430991
0.001514267215991454
0.0015252900892652771
0.0015087557793545424
0.0015197786526283655
0.00151702293430991
0.0014701757228961615
0.0014288399481193247
0.0014426185397116034
0.0014591528496223384
0.0014729314412146172
0.001489465751125352
0.001492221469443808
0.0015060000610360867
0.0015087557793545424
0.00151702293430991
0.0014784428778515288
0.0014619085679407943
0.0014701757228961615
0.001489465751125352
0.001492221469443808
0.0014288399481193247
0.0014315956664377805
0.001453641412985427
0.0013985270466163114
0.0014095499198901345
0.0014343513847562366
0.0014205727931639574
0.001401282764934767
0.0014205727931639574
0.0014040384832532226
0.00135994699015793
0.0013296340886549166
0.0013296340886549166
0.0012965654688334468
0.0013020769054703587
0.001335145525291828
0.0013544355535210185
0.0012965654688334468
0.0012662525673304335
0.0012607411306935217
0.0012910540321965354
0.0012965654688334468
0.0012882983138780798
0.0012745197222858006
0.001271764003967345
0.0012745197222858006
0.0012607411306935217
0.0012800311589227123
0.0012745197222858006
0.0012634968490119777
0.0012607411306935217
0.0012497182574196988
0.0012607411306935217
0.0012910540321965354
0.0013130997787441814
0.0012662525673304335
0.0012552296940566102
0.0013020769054703587
0.0012882983138780798
0.0012111382009613175
0.0012083824826428621
0.001224916792553597
0.0012028710460059502
0.0011587795529106576
0.001128466651407644
0.0011174437781338207
0.0011477566796368347
0.0011532681162737465
0.0011477566796368347
0.001136733806363011
0.0011091766231784534
0.0010705965667200726
0.0010402836652170589
0.0010430393835355147
0.0010733522850385282
0.0010788637216754397
0.0010871308766308072
0.001103665186541542
0.001125710933089188
0.0011560238345922017
0.001169802426184481
0.0011450009613183788
0.0011477566796368347
0.0011835810177767598
0.0011863367360952157
0.0011973596093690386
0.0012111382009613175
0.0012276725108720525
0.0012524739757381546
0.0012194053559166852
0.0012001153276874944
0.0012083824826428621
0.0012111382009613175
0.001167046707866025
0.0011229552147707324
0.0011146880598153653
0.0011477566796368347
0.0011505123979552907
0.0011229552147707324
0.0010568179751277937
0.0010457951018539703
0.0010678408484016168
0.001103665186541542
0.0011229552147707324
0.0011174437781338207
0.0011174437781338207
0.0011422452429999228
0.0011174437781338207
0.0010871308766308072
0.0010871308766308072
0.0011394895246814672
0.0011946038910505827
0.0012634968490119777
0.0013627027084763858
0.0017843276112001212
0.0019303806820782777
0.0018477091325246043
0.0014977329060807197
0.0009906807354848547
0.0005938572976272215
0.0004974071564812689
0.0005414986495765614
0.0006131473258564118
0.0007454218051422897
0.0008308490730144192
0.0008887191577019906
0.0009961921721217662
0.0010457951018539703
0.0010430393835355147
0.0010705965667200726
0.0011009094682230861
0.0011229552147707324
0.0011450009613183788
0.0011174437781338207
0.0011339780880445555
0.0011587795529106576
0.0011201994964522765
0.0010871308766308072
0.001136733806363011
0.0011753138628213923
0.0011615352712291134
0.001169802426184481
0.001180825299458304
0.001169802426184481
0.0011505123979552907
0.001167046707866025
0.001178069581139848
0.0011587795529106576
0.0011477566796368347
0.001167046707866025
0.001205626764324406
0.001224916792553597
0.001246962539101243
0.0012524739757381546
0.0012166496375982292
0.0012331839475089635
0.0012359396658274198
0.0012304282291905084
0.0012221610742351409
0.0012001153276874944
0.0011973596093690386
0.0012414511024643313
0.0012386953841458756
0.0012166496375982292
0.0012359396658274198
0.001244206820782787
0.0012304282291905084
0.0012166496375982292
0.0012083824826428621
0.001224916792553597
0.001244206820782787
0.0012414511024643313
0.0012138939192797731
0.0012138939192797731
0.0012552296940566102
0.001246962539101243
0.0012607411306935217
0.0012690082856488892
0.001257985412375066
0.0012552296940566102
0.0012414511024643313
0.0012138939192797731
0.0012083824826428621
0.0012194053559166852
0.001205626764324406
0.0011918481727321271
0.0011890924544136717
0.0011890924544136717
0.0011973596093690386
0.0012166496375982292
0.0012276725108720525
0.0012111382009613175
0.0012331839475089635
0.0012221610742351409
0.0011946038910505827
0.0011946038910505827
0.0011918481727321271
0.001178069581139848
0.0011615352712291134
0.0011312223697260999
0.0011119323414969095
0.0010788637216754397
0.0010705965667200726
0.001103665186541542
0.0010788637216754397
0.0010457951018539703
0.0010816194399938957
0.0010981537499046305
0.0010816194399938957
0.0010816194399938957
0.0010871308766308072
0.0010733522850385282
0.0010430393835355147
0.0010402836652170589
0.0010292607919432355
0.0010402836652170589
0.0010209936369878683
0.001051306538490882
0.0010402836652170589
0.001037527946898603
0.0010127264820325008
0.000985169298847943
0.000982413580529487
0.0010182379186694126
0.001037527946898603
0.001051306538490882
0.001051306538490882
0.001051306538490882
0.0010595736934462493
0.001051306538490882
0.0009906807354848547
0.0009796578622110316
0.0009934364538033101
0.0009769021438925758
0.0009934364538033101
0.0010320165102616916
0.0010154822003509568
0.000982413580529487
0.000985169298847943
0.0010127264820325008
0.0010182379186694126
0.001007215045395589
0.0009658792706187528
0.0009906807354848547
0.0009934364538033101
0.000982413580529487
0.000985169298847943
0.0009879250171663987
0.000998947890440222
0.0009961921721217662
0.0010044593270771337
0.0010237493553063243
0.0010182379186694126
0.001048550820172426
0.001089886594949263
0.0010678408484016168
0.0010237493553063243
0.0010347722285801472
0.001037527946898603
0.0010154822003509568
0.000998947890440222
0.0009769021438925758
0.0009906807354848547
0.00097414642557412
0.0009576121156633854
0.0009658792706187528
0.00097414642557412
0.000982413580529487
0.0009769021438925758
0.0010017036087586776
0.0010044593270771337
0.0009631235523002968
0.0009631235523002968
0.0009686349889372082
0.000982413580529487
0.00097414642557412
0.0009658792706187528
0.000971390707255664
0.000982413580529487
0.0009521006790264736
0.000985169298847943
0.0010595736934462493
0.0011505123979552907
0.0012910540321965354
0.0015197786526283655
0.0017016560616464477
0.0016989003433279916
0.0013985270466163114
0.0009107649042496368
0.0004478042267490647
0.00032655262073701005
0.0003485983672846564
0.000392689860379949
0.0005029185931181804
0.0006296816357671465
0.0007206203402761877
0.0007840018616006707
0.0008336047913328749
0.0008887191577019906
0.0009328106507972832
0.0009521006790264736
0.0009796578622110316
0.000971390707255664
0.000971390707255664
0.000982413580529487
0.0009796578622110316
0.0009906807354848547
0.000971390707255664
0.0009631235523002968
0.0009465892423895617
0.0010017036087586776
0.0010127264820325008
0.0009631235523002968
0.0009631235523002968
0.0009796578622110316
0.0009796578622110316
0.0010154822003509568
0.0010320165102616916
0.0009796578622110316
0.0010044593270771337
0.0010182379186694126
0.0010595736934462493
0.0010650851300831607
0.0010568179751277937
0.0010099707637140451
0.000985169298847943
0.0009879250171663987
0.0010017036087586776
0.0010402836652170589
0.0010595736934462493
0.0010595736934462493
0.001051306538490882
0.0010402836652170589
0.0010623294117647053
0.0010788637216754397
0.0010761080033569843
0.0010733522850385282
0.0010623294117647053
0.0010540622568093376
0.0010347722285801472
0.0010320165102616916
0.0010595736934462493
0.0010568179751277937
0.0010430393835355147
0.0010595736934462493
0.0010430393835355147
0.0010568179751277937
0.0010816194399938957
0.0010678408484016168
0.0010595736934462493
0.0010568179751277937
0.0010402836652170589
0.001048550820172426
0.001048550820172426
0.0010320165102616916
0.0010127264820325008
0.0010209936369878683
0.0009934364538033101
0.0009521006790264736
0.0009383220874341949
0.0009438335240711064
0.000982413580529487
0.0010209936369878683
0.0010099707637140451
0.000971390707255664
0.0009548563973449294
0.0009300549324788276
0.0009328106507972832
0.000908009185931181
0.0008832077210650791
0.0008942305943389022
0.0008832077210650791
0.0008859634393835348
0.0009135206225680924
0.0008942305943389022
0.000855650537880521
0.0008446276646066979
0.0008308490730144192
0.0008032918898298613
0.000806047608148317
0.0008363605096513305
0.0008473833829251538
0.0008914748760204465
0.0008942305943389022
0.0008694291294728002
0.0008418719462882423
0.0007950247348744939
0.0007784904249637591
0.0007784904249637591
0.0007729789883268476
0.0008115590447852286
0.0008336047913328749
0.0008280933546959632
0.0008446276646066979
0.00081707048142214
0.0007784904249637591
0.0008005361715114055
0.0008280933546959632
0.0008336047913328749
0.0008308490730144192
0.0007895132982375822
0.0007619561150530243
0.000806047608148317
0.0008253376363775078
0.0007812461432822147
0.0007481775234607456
0.0007647118333714802
0.000753688960097657
0.0007399103685053779
0.0007399103685053779
0.0007647118333714802
0.0008032918898298613
0.00081707048142214
0.000806047608148317
0.0007619561150530243
0.0007288874952315547
0.000753688960097657
0.0007729789883268476
0.0007564446784161128
0.0007481775234607456
0.0007729789883268476
0.0007895132982375822
0.0007867575799191265
0.0008336047913328749
0.0008308490730144192
0.0007757347066453035
0.000753688960097657
0.0007702232700083917
0.00081707048142214
0.0008198261997405958
0.0008115590447852286
0.0007950247348744939
0.0008005361715114055
0.00081707048142214
0.0007840018616006707
0.0007647118333714802
0.0008088033264667726
0.0007619561150530243
0.0007206203402761877
0.0007343989318684667
0.0007481775234607456
0.0007426660868238338
0.0007867575799191265
0.0007895132982375822
0.000753688960097657
0.000753688960097657
0.000753688960097657
0.0007509332417792012
0.0007288874952315547
0.0007068417486839086
0.0006985745937285414
0.000687551720454718
0.0007123531853208202
0.0007647118333714802
0.0008032918898298613
0.0008859634393835348
0.0010540622568093376
0.0012910540321965354
0.0015087557793545424
0.0014756871595330732
0.0011064209048599978
0.0005966130159456772
0.000210812451361867
0.00013640805676356078
0.00019152242313267648
0.00022734676127260172
0.0003072625925078196
0.00042851419851987416
0.0005635443961242077
0.0006296816357671465
0.0006517273823147929
0.0006710174105439835
0.0006627502555886161
0.0007151089036392759
0.0007619561150530243
0.0007840018616006707
0.0007840018616006707
0.0007481775234607456
0.0007316432135500107
0.0007454218051422897
0.000753688960097657
0.0007784904249637591
0.0007812461432822147
0.000767467551689936
0.0007867575799191265
0.0007592003967345686
0.0007233760585946433
0.0007867575799191265
0.0007812461432822147
0.0008198261997405958
0.000855650537880521
0.0007702232700083917
0.0007095974670023644
0.0007151089036392759
0.000753688960097657
0.0007812461432822147
0.0007702232700083917
0.0008143147631036844
0.000855650537880521
0.0008280933546959632
0.0008143147631036844
0.0008088033264667726
0.0008088033264667726
0.0008088033264667726
0.0008446276646066979
0.0008446276646066979
0.0007977804531929496
0.0008115590447852286
0.0008308490730144192
0.0008832077210650791
0.0008942305943389022
0.0008611619745174325
0.0008088033264667726
0.0007729789883268476
0.0008088033264667726
0.0008721848477912556
0.0008887191577019906
0.0008887191577019906
0.0008611619745174325
0.0008088033264667726
0.0008115590447852286
0.0008501391012436096
0.0008473833829251538
0.0008253376363775078
0.0008032918898298613
0.0007867575799191265
0.000806047608148317
0.0008418719462882423
0.0008859634393835348
0.0008336047913328749
0.0008198261997405958
0.0008308490730144192
0.0008088033264667726
0.0008143147631036844
0.0008115590447852286
0.0007895132982375822
0.0007950247348744939
0.0007757347066453035
0.0007343989318684667
0.0007206203402761877
0.000701330312046997
0.0006930631570916297
0.0007095974670023644
0.0007371546501869223
0.0008032918898298613
0.0007564446784161128
0.0006847960021362622
0.0006572388189517045
0.0006655059739070718
0.000701330312046997
0.0006655059739070718
0.0006489716639963371
0.000637948790722514
0.0006021244525825888
0.0005690558327611192
0.0005800787060349425
0.0006076358892195001
0.0005800787060349425
0.0005800787060349425
0.000676528847180895
0.000676528847180895
0.0006599945372701603
0.0006407045090409697
0.0005635443961242077
0.0005911015793087656
0.0006407045090409697
0.0006131473258564118
0.0005966130159456772
0.0006324373540856024
0.0006599945372701603
0.0006296816357671465
0.0005800787060349425
0.0005194529030289152
0.0005525215228503846
0.0005800787060349425
0.0005883458609903097
0.0006131473258564118
0.000585590142671854
0.0005883458609903097
0.0006048801709010444
0.0005773229877164866
0.000585590142671854
0.0005745672693980309
0.0005525215228503846
0.000547010086213473
0.0005690558327611192
0.0005690558327611192
0.0005718115510795751
0.0005552772411688404
0.0005718115510795751
0.0005525215228503846
0.0005525215228503846
0.0005222086213473709
0.0005690558327611192
0.0005773229877164866
0.000547010086213473
0.0005580329594872961
0.0005800787060349425
0.0005745672693980309
0.0006103916075379561
0.0006434602273594254
0.0006241701991302349
0.0006048801709010444
0.000585590142671854
0.0006296816357671465
0.0006517273823147929
0.0006048801709010444
0.0005718115510795751
0.0005414986495765614
0.0005222086213473709
0.0005414986495765614
0.0005332314946211942
0.0005580329594872961
0.0005442543678950173
0.0004946514381628131
0.0005139414663920035
0.0005194529030289152
0.0004974071564812689
0.0005277200579842825
0.0005194529030289152
0.000508430029755092
0.0004726056916151668
0.00042024704356450677
0.00043126991683832994
0.0005029185931181804
0.0005580329594872961
0.0005690558327611192
0.0006407045090409697
0.0007619561150530243
0.0009438335240711064
0.0011725581445029367
0.0013268783703364606
0.0012221610742351409
0.000858406256198977
0.0003348197756923775
-5.9247943846800084e-05
-0.00016396523994811996
-0.00014191949340047367
-6.889295796140132e-06
0.00014467521171892812
0.00027970540932326175
0.0003844227054245816
0.0004395370717936973
0.00047536140993362247
0.00047536140993362247
0.0004367813534752416
0.0004891400015259016
0.0005111857480735478
0.0005029185931181804
0.0005222086213473709
0.0004946514381628131
0.0004974071564812689
0.0005277200579842825
0.0005414986495765614
0.0005111857480735478
0.0005001628747997245
0.000547010086213473
0.0006048801709010444
0.0005525215228503846
0.0005249643396658268
0.0005332314946211942
0.0005580329594872961
0.0005663001144426635
0.0005663001144426635
0.0005773229877164866
0.000585590142671854
0.0005552772411688404
0.0005139414663920035
0.0005442543678950173
0.0005745672693980309
0.0005525215228503846
0.0005635443961242077
0.0005938572976272215
0.0005938572976272215
0.0005911015793087656
0.0006103916075379561
0.0006186587624933234
0.0006103916075379561
0.0005938572976272215
0.0005938572976272215
0.0006269259174486908
0.0006324373540856024
0.0006186587624933234
0.0006021244525825888
0.0005800787060349425
0.0005718115510795751
0.0006021244525825888
0.0006241701991302349
0.0006076358892195001
0.0006103916075379561
0.0006159030441748677
0.0006351930724040583
0.0006407045090409697
0.0006131473258564118
0.0006296816357671465
0.000637948790722514
0.0005883458609903097
0.000560788677805752
0.0005800787060349425
0.0005690558327611192
0.0005525215228503846
0.0006021244525825888
0.0006048801709010444
0.0005828344243533982
0.0005828344243533982
0.0005966130159456772
0.0005745672693980309
0.0005332314946211942
0.0005414986495765614
0.0005277200579842825
0.000508430029755092
0.0005359872129396498
0.0005249643396658268
0.0005056743114366363
0.0004918957198443572
0.0004588271000228878
0.0004340256351567857
0.00042575848020141833
0.0004505599450675205
0.0004863842832074457
0.0004615828183413437
0.00042024704356450677
0.00041749132524605104
0.0004064684519722279
0.0003596212405584795
0.0003568655222400236
0.00038717842374303736
0.0003733998321507585
0.00036788839551384685
0.0003596212405584795
0.00037891126878767
0.0003982012970168605
0.00041197988860913943
0.00038993414206149314
0.000365132677195391
0.00036788839551384685
0.0003733998321507585
0.000340331212329289
0.0003430869306477448
0.00037064411383230263
0.0003568655222400236
0.0003596212405584795
0.000340331212329289
0.00037891126878767
0.0004064684519722279
0.00037064411383230263
0.00032655262073701005
0.000315529747463187
0.0003182854657816428
0.00032104118410009855
0.00035410980392156795
0.0003485983672846564
0.0003596212405584795
0.000340331212329289
0.0003293083390554659
0.00030450687418936376
0.0003127740291447311
0.0003182854657816428
0.0002989954375524522
0.000315529747463187
0.000315529747463187
0.0002934840009155406
0.0002852168459601733
0.00033206405737392166
0.0003182854657816428
0.0003072625925078196
0.00031001831082627527
0.000301751155870908
0.0003127740291447311
0.0003348197756923775
0.0003375754940108332
0.0003182854657816428
0.0003293083390554659
0.00032379690241855427
0.0003348197756923775
0.0003844227054245816
0.00037615555046921414
0.00037891126878767
0.00037064411383230263
0.000315529747463187
0.0002741939726863501
0.0002769496910048059
0.00029072828259708476
0.00029072828259708476
0.0002852168459601733
0.00024388107118333642
0.0002190796063172344
0.00021632388799877858
0.00021632388799877858
0.0002493925078202481
0.000263171099412527
0.00023561391622796914
0.0002218353246356902
0.00019427814145113231
0.00019978957808804387
0.000172232394903486
0.0001556980849927513
0.00019978957808804387
0.000210812451361867
0.00019978957808804387
0.00020254529640649968
0.00025214822613870384
0.0003596212405584795
0.0004946514381628131
0.0007095974670023644
0.0009245434958419158
0.0009162763408865484
0.0006241701991302349
0.00013640805676356078
-0.00032655262073701135
-0.0005056743114366376
-0.000447804226749066
-0.0003568655222400251
-0.00023561391622797047
-0.00014743093003738526
-8.956084534981374e-05
-2.342360570687485e-05
2.8935042343785094e-05
7.853797207598924e-05
0.00014191949340047234
0.00013916377508201656
0.00013365233844510492
0.00011987374685282605
0.00010609515526054714
0.00011436231021591448
0.00015845380331120705
0.00019152242313267648
0.000172232394903486
0.0001556980849927513
0.00013089662012664922
0.00011987374685282605
0.0001253851834897376
0.00012262946517128183
0.00016672095826657444
0.00016396523994811866
0.00013640805676356078
0.00014743093003738393
0.00015294236667429551
0.00016120952162966288
0.000172232394903486
0.0001556980849927513
0.00015294236667429551
0.00019427814145113231
0.00019978957808804387
0.00020530101472495543
0.0002190796063172344
0.00018049954985885336
0.0001694766765850302
0.00019152242313267648
0.00022734676127260172
0.00023285819790951333
0.00023561391622796914
0.0002383696345464249
0.00019978957808804387
0.00014191949340047234
0.00018049954985885336
0.0002190796063172344
0.00024388107118333642
0.0002741939726863501
0.000263171099412527
0.0002741939726863501
0.00026592681773098274
0.0002549039444571596
0.00018876670481422076
0.00019978957808804387
0.0002549039444571596
0.0002852168459601733
0.00026041538109407124
0.00017774383154039756
0.00019152242313267648
0.00023561391622796914
0.00020530101472495543
0.00019152242313267648
0.00020805673304341124
0.00020530101472495543
0.00016120952162966288
0.00017774383154039756
0.00019152242313267648
0.0001556980849927513
0.00016120952162966288
0.00019427814145113231
0.00018876670481422076
0.0001694766765850302
0.00016672095826657444
0.00015294236667429551
0.00013640805676356078
0.00010609515526054714
0.00010609515526054714
0.00010609515526054714
8.68051270313566e-05
0.00010333943694209132
0.00011711802853437029
8.404940871290084e-05
4.546935225451981e-05
2.066788738841773e-05
9.64501411459459e-06
2.3423605706873515e-05
1.2400732433050376e-05
2.3423605706873515e-05
2.066788738841773e-05
6.8892957961388014e-06
4.133577477683014e-06
-1.377859159228559e-06
-1.5156450751507488e-05
-3.995791561760957e-05
-1.240073243305171e-05
4.133577477683014e-06
6.8892957961388014e-06
2.6179324025329308e-05
3.444647898069667e-05
-9.64501411459592e-06
4.133577477683014e-06
4.133577477683014e-06
-2.6179324025330647e-05
-4.5469352254521147e-05
-3.720219729915378e-05
-4.2713633936065354e-05
-2.342360570687485e-05
-4.2713633936065354e-05
-7.85379720759906e-05
-7.027081712062322e-05
-4.2713633936065354e-05
-2.066788738841907e-05
-2.6179324025330647e-05
-4.2713633936065354e-05
-6.751509880216745e-05
-7.85379720759906e-05
-0.00012814090180819475
-0.000150186648355841
-0.00010058371862363688
-8.680512703135793e-05
-4.5469352254521147e-05
-9.231656366826955e-05
-0.00010885087357900426
-9.231656366826955e-05
-0.00010058371862363688
-0.00010333943694209268
-8.956084534981374e-05
-9.507228198672531e-05
-0.00012538518348973897
-0.0001171180285343716
-9.231656366826955e-05
-0.0001198737468528274
-0.00011436231021591582
-0.00011436231021591582
-0.0001171180285343716
-8.404940871290214e-05
-2.8935042343786426e-05
-3.169076066224221e-05
-5.098078889143272e-05
-3.995791561760957e-05
-3.169076066224221e-05
-4.8225070572976926e-05
-9.231656366826955e-05
-0.00011160659189746003
-8.956084534981374e-05
-9.507228198672531e-05
-8.680512703135793e-05
-9.231656366826955e-05
-0.00011436231021591582
-0.00014467521171892948
-0.00014743093003738526
-0.00017498811322194308
-0.0001584538033112084
-0.0001336523384451063
-0.0001364080567635621
-0.00011436231021591582
-0.00011160659189746003
-0.0001364080567635621
-0.00018601098649576628
-0.00016672095826657574
-0.00012538518348973897
-0.0001612095216296642
-0.00011436231021591582
-3.995791561760957e-05
1.3778591592272275e-06
0.00012814090180819342
0.0003348197756923775
0.0005359872129396498
0.0006214144808117793
0.00042024704356450677
-9.64501411459592e-06
-0.0004891400015259028
-0.0007592003967345699
-0.0007536889600976582
-0.000720620340276189
-0.0006599945372701616
-0.0005690558327611206
-0.00044504850843061025
-0.0003210411841000998
-0.00024939250782024937
-0.00019152242313267784
-0.00016947667658503157
-0.00017223239490348733
-0.00014743093003738526
-0.0001336523384451063
-0.00014467521171892948
-0.00012538518348973897
-0.0001198737468528274
-0.0001171180285343716
-8.404940871290214e-05
-7.57822537575348e-05
-7.302653543907902e-05
-8.956084534981374e-05
-9.507228198672531e-05
-8.956084534981374e-05
-0.00010885087357900426
-8.680512703135793e-05
-7.027081712062322e-05
-8.404940871290214e-05
-8.129369039444639e-05
-4.8225070572976926e-05
-7.85379720759906e-05
-7.85379720759906e-05
-4.5469352254521147e-05
-3.720219729915378e-05
-4.2713633936065354e-05
-4.8225070572976926e-05
-5.6492225528344285e-05
-5.6492225528344285e-05
-4.8225070572976926e-05
-5.9247943846800084e-05
-5.9247943846800084e-05
-2.8935042343786426e-05
-1.5156450751507488e-05
3.169076066224089e-05
2.066788738841773e-05
6.8892957961388014e-06
-9.64501411459592e-06
-5.6492225528344285e-05
-5.9247943846800084e-05
-3.4446478980697995e-05
-3.720219729915378e-05
-4.2713633936065354e-05
-1.240073243305171e-05
-4.133577477684346e-06
2.6179324025329308e-05
3.9957915617608246e-05
3.9957915617608246e-05
1.7912169069961946e-05
-1.5156450751507488e-05
-3.169076066224221e-05
-6.889295796140132e-06
-2.066788738841907e-05
-5.3736507209888505e-05
-3.4446478980697995e-05
-2.8935042343786426e-05
-4.8225070572976926e-05
-0.00010058371862363688
-7.57822537575348e-05
-3.169076066224221e-05
-5.9247943846800084e-05
-9.507228198672531e-05
-9.231656366826955e-05
-8.404940871290214e-05
-0.00010058371862363688
-9.507228198672531e-05
-8.680512703135793e-05
-0.00010885087357900426
-0.00014191949340047367
-0.00014467521171892948
-0.0001198737468528274
-0.0001391637750820179
-0.00016396523994811996
-0.0001777438315403989
-0.00019152242313267784
-0.00018049954985885472
-0.0001777438315403989
-0.00021632388799877996
-0.0002466367895017936
-0.0001997895780880452
-0.00020254529640650095
-0.0002549039444571609
-0.0002190796063172357
-0.00023836963454642628
-0.0002631710994125282
-0.0003127740291447324
-0.0003155297474631883
-0.00023836963454642628
-0.00018876670481422206
-0.00020254529640650095
-0.00023285819790951464
-0.00023285819790951464
-0.00023836963454642628
-0.0002604153810940725
-0.00026592681773098404
-0.0002962397192339978
-0.00029348400091554195
-0.0002824611276417188
-0.0002466367895017936
-0.0002466367895017936
-0.00024388107118333775
-0.00025765966277561676
-0.0003348197756923787
-0.00032655262073701135
-0.00027970540932326305
-0.00030726259250782084
-0.0002852168459601746
-0.00027970540932326305
-0.0002989954375524536
-0.0003210411841000998
-0.0003568655222400251
-0.00036788839551384826
-0.00031828546578164407
-0.0002521482261387052
-0.00027143825436789566
-0.0003100183108262768
-0.0003293083390554673
-0.00031828546578164407
-0.0002852168459601746
-0.00027694969100480727
-0.0003210411841000998
-0.0003430869306477461
-0.0003127740291447324
-0.0003320640573739229
-0.0003348197756923787
-0.00030175115587090934
-0.0002852168459601746
-0.00027419397268635144
-0.00023010247959105888
-0.0002080567330434125
-0.0002108124513618684
-0.00023010247959105888
-0.00024939250782024937
-0.00023285819790951464
-0.00024939250782024937
-0.0003100183108262768
-0.0003403312123292903
-0.0003100183108262768
-0.0002989954375524536
-0.0002989954375524536
-0.00031828546578164407
-0.0003127740291447324
-0.00030726259250782084
-0.00029072828259708617
-0.00027970540932326305
-0.0003651326771953924
-0.0003899341420614945
-0.0003568655222400251
-0.00037339983215075977
-0.00035410980392156926
-0.0002962397192339978
-0.0003375754940108345
-0.0003210411841000998
-0.0003293083390554673
-0.00031828546578164407
-0.00032655262073701135
-0.0002824611276417188
-0.0001198737468528274
0.00010885087357900291
0.00033206405737392166
0.0005277200579842825
0.00042575848020141833
-1.240073243305171e-05
-0.0005414986495765627
-0.0009383220874341961
-0.0009851692988479444
-0.0008832077210650803
-0.0007592003967345699
-0.0006820402838178078
-0.0005800787060349438
-0.000447804226749066
-0.0003844227054245829
-0.00039268986037995033
-0.0003871784237430386
-0.00040922417029068495
-0.0003871784237430386
-0.00032655262073701135
-0.00032655262073701135
-0.0002852168459601746
-0.00030175115587090934
-0.0003100183108262768
-0.0002989954375524536
-0.0003127740291447324
-0.00030175115587090934
-0.0002686825360494398
-0.0002549039444571609
-0.0002466367895017936
-0.0002466367895017936
-0.0002604153810940725
-0.00027143825436789566
-0.00026592681773098404
-0.00029072828259708617
-0.0002962397192339978
-0.0003045068741893651
-0.0002549039444571609
-0.00023010247959105888
-0.00023010247959105888
-0.0002108124513618684
-0.00021356816968032413
-0.0002108124513618684
-0.00024112535286488197
-0.0002521482261387052
-0.00024939250782024937
-0.0002080567330434125
-0.0002080567330434125
-0.00018049954985885472
-0.00017223239490348733
-0.0001997895780880452
-0.00023561391622797047
-0.00018325526817731047
-0.0001364080567635621
-0.00020254529640650095
-0.00019703385976958942
-0.00022734676127260308
-0.00023285819790951464
-0.00018325526817731047
-0.00017223239490348733
-0.00019703385976958942
-0.0001584538033112084
-0.0001777438315403989
-0.00019703385976958942
-0.00017498811322194308
-0.00016396523994811996
-0.00016947667658503157
-0.00016672095826657574
-0.0002080567330434125
-0.0001997895780880452
-0.0002604153810940725
-0.00022459104295414727
-0.00019152242313267784
-0.0001777438315403989
-0.00017223239490348733
-0.0001997895780880452
-0.00021356816968032413
-0.0002080567330434125
-0.00019703385976958942
-0.0002080567330434125
-0.00019152242313267784
-0.00027419397268635144
-0.0003155297474631883
-0.00025765966277561676
-0.0002218353246356915
-0.00023285819790951464
-0.00027694969100480727
-0.0003127740291447324
-0.00031828546578164407
-0.0003513540856031135
-0.0003513540856031135
-0.0003430869306477461
-0.0003430869306477461
-0.0003568655222400251
-0.00037891126878767127
-0.00037891126878767127
-0.0003513540856031135
-0.0003513540856031135
-0.0003375754940108345
-0.0003458426489662019
-0.00039268986037995033
-0.0003982012970168618
-0.0003899341420614945
-0.0003899341420614945
-0.00036237695887693665
-0.00040922417029068495
-0.00040095701533531767
-0.0003458426489662019
-0.0003651326771953924
-0.0003816669871061273
-0.0003651326771953924
-0.00036788839551384826
-0.00037891126878767127
-0.0003816669871061273
-0.0003210411841000998
-0.0003100183108262768
-0.00037339983215075977
-0.00041197988860914084
-0.00039268986037995033
-0.0003954455786984061
-0.0004257584802014197
-0.0004202470435645082
-0.0003982012970168618
-0.00041197988860914084
-0.00041749132524605234
-0.0003982012970168618
-0.00041197988860914084
-0.0004257584802014197
-0.0003954455786984061
-0.0003403312123292903
-0.00035410980392156926
-0.0003844227054245829
-0.0004202470435645082
-0.00045331566338597764
-0.00045331566338597764
-0.0004285141985198755
-0.000423002761882964
-0.0004257584802014197
-0.0004422927901121546
-0.0004312699168383313
-0.0003899341420614945
-0.0003871784237430386
-0.0003871784237430386
-0.000370644113832304
-0.00036237695887693665
-0.0003513540856031135
-0.00035410980392156926
-0.0003320640573739229
-0.00032379690241855563
-0.0003596212405584808
-0.0003485983672846577
-0.00035410980392156926
-0.00040646845197222917
-0.00041197988860914084
-0.00040371273365377345
-0.0004202470435645082
-0.00043402563515678713
-0.00045882710002288904
-0.0004698499732967123
-0.0004560713817044334
-0.00044504850843061025
-0.0004285141985198755
-0.0004422927901121546
-0.0004560713817044334
-0.0004698499732967123
-0.00045882710002288904
-0.00045882710002288904
-0.00043678135347524285
-0.00044504850843061025
-0.00043953707179369863
-0.00045055994506752175
-0.0004615828183413449
-0.00040922417029068495
-0.0003320640573739229
-0.00018325526817731047
4.82250705729756e-05
0.00029072828259708476
0.00043126991683832994
0.0002383696345464249
-0.0002824611276417188
-0.0008528948195620666
-0.001156023834592203
-0.0011367338063630126
-0.0010099707637140464
-0.0009024977492942707
-0.0007702232700083929
-0.0006572388189517057
-0.0005332314946211955
-0.0004615828183413449
-0.00045331566338597764
-0.00047260569161516804
-0.0004257584802014197
-0.0004285141985198755
-0.0004257584802014197
-0.0004147356069275966
-0.0003982012970168618
-0.0003651326771953924
-0.000370644113832304
-0.00037339983215075977
-0.0003513540856031135
-0.000370644113832304
-0.00037891126878767127
-0.00040095701533531767
-0.0003982012970168618
-0.0003816669871061273
-0.0003568655222400251
-0.0003430869306477461
-0.0003485983672846577
-0.0003320640573739229
-0.0003430869306477461
-0.0003348197756923787
-0.00031828546578164407
-0.0003210411841000998
-0.00030726259250782084
-0.0003100183108262768
-0.0003127740291447324
-0.00032379690241855563
-0.0003155297474631883
-0.0003210411841000998
-0.0003348197756923787
-0.00029348400091554195
-0.0002962397192339978
-0.00030175115587090934
-0.00029348400091554195
-0.0002824611276417188
-0.00029072828259708617
-0.0002852168459601746
-0.0002989954375524536
-0.00029072828259708617
-0.0002686825360494398
-0.0002604153810940725
-0.00022459104295414727
-0.0002521482261387052
-0.0002686825360494398
-0.00027694969100480727
-0.00024939250782024937
-0.0002604153810940725
-0.00030726259250782084
-0.00028797256427863044
-0.00029348400091554195
-0.00032655262073701135
-0.0003293083390554673
-0.0003100183108262768
-0.0002824611276417188
-0.00027143825436789566
-0.00024939250782024937
-0.00026592681773098404
-0.0003127740291447324
-0.0003348197756923787
-0.0003430869306477461
-0.0003348197756923787
-0.0003210411841000998
-0.0003320640573739229
-0.0002686825360494398
-0.0002989954375524536
-0.0003651326771953924
-0.0003871784237430386
-0.0004147356069275966
-0.0004312699168383313
-0.00043402563515678713
-0.00044504850843061025
-0.00043402563515678713
-0.0003982012970168618
-0.000423002761882964
-0.0004257584802014197
-0.00043678135347524285
-0.00047260569161516804
-0.0004891400015259028
-0.0005249643396658282
-0.0005029185931181816
-0.00048087284657053543
-0.0004918957198443586
-0.0005166971847104609
-0.0004918957198443586
-0.00046433853665980087
-0.00045882710002288904
-0.00045055994506752175
-0.00041749132524605234
-0.0004147356069275966
-0.0004560713817044334
-0.00046709425497825643
-0.0004891400015259028
-0.0005084300297550932
-0.000500162874799726
-0.0004698499732967123
-0.0004781171282520797
-0.0004918957198443586
-0.00045055994506752175
-0.00043953707179369863
-0.00048362856488899143
-0.0005249643396658282
-0.0005111857480735491
-0.00045055994506752175
-0.00046709425497825643
-0.00048638428320744705
-0.0005166971847104609
-0.0005139414663920051
-0.0005056743114366376
-0.0005084300297550932
-0.0005056743114366376
-0.0005222086213473721
-0.0005111857480735491
-0.0005084300297550932
-0.00048638428320744705
-0.0004698499732967123
-0.00048362856488899143
-0.0005194529030289164
-0.0005222086213473721
-0.0005304757763027395
-0.0005249643396658282
-0.0005139414663920051
-0.0005029185931181816
-0.000500162874799726
-0.00047536140993362393
-0.00046709425497825643
-0.0005084300297550932
-0.0005139414663920051
-0.00047260569161516804
-0.00043402563515678713
-0.000423002761882964
-0.0003954455786984061
-0.00040922417029068495
-0.0004202470435645082
-0.00043953707179369863
-0.0004560713817044334
-0.00043678135347524285
-0.000447804226749066
-0.0004781171282520797
-0.00047536140993362393
-0.0004918957198443586
-0.0005029185931181816
-0.0005166971847104609
-0.0005277200579842838
-0.0005111857480735491
-0.0005056743114366376
-0.0005222086213473721
-0.0005194529030289164
-0.0004974071564812702
-0.0004974071564812702
-0.0005166971847104609
-0.0005111857480735491
-0.0004918957198443586
-0.0005084300297550932
-0.0005111857480735491
-0.00048362856488899143
-0.00046709425497825643
-0.0003954455786984061
-0.00027143825436789566
-0.00011436231021591582
9.23165636682682e-05
0.00020805673304341124
6.751509880216611e-05
-0.0003127740291447324
-0.0008198261997405972
-0.001233183947508965
-0.0012772754406042577
-0.0011973596093690403
-0.001120199496452278
-0.0010320165102616929
-0.0009272992141603728
-0.0008418719462882435
-0.0007674675516899373
-0.0007399103685053794
-0.0007178646219577333
-0.0006737731288624405
-0.000629681635767148
-0.0006489716639963384
-0.0006599945372701616
-0.0006379487907225153
-0.0006351930724040594
-0.0006324373540856038
-0.0006489716639963384
-0.00065448310063325
-0.00065448310063325
-0.0006517273823147941
-0.0006572388189517057
-0.0006655059739070732
-0.0006875517204547195
-0.0006930631570916311
-0.0006958188754100868
-0.0006737731288624405
-0.0006434602273594267
-0.0006407045090409712
-0.0006214144808117806
-0.0006517273823147941
-0.0006517273823147941
-0.000629681635767148
-0.000629681635767148
-0.0006379487907225153
-0.0006489716639963384
-0.0006462159456778825
-0.0006517273823147941
-0.0006241701991302363
-0.000629681635767148
-0.0006765288471808962
-0.0006379487907225153
-0.0006462159456778825
-0.0006407045090409712
-0.0006572388189517057
-0.0006351930724040594
-0.0006131473258564133
-0.0006351930724040594
-0.00065448310063325
-0.0006599945372701616
-0.0006627502555886173
-0.0006572388189517057
-0.0006572388189517057
-0.0006655059739070732
-0.0006710174105439848
-0.0006627502555886173
-0.0006489716639963384
-0.0006324373540856038
-0.0006434602273594267
-0.0006820402838178078
-0.0007013303120469984
-0.00065448310063325
-0.0006489716639963384
-0.0006903074387731753
-0.0007343989318684678
-0.0007564446784161143
-0.0007840018616006722
-0.0007977804531929508
-0.0007812461432822162
-0.0007674675516899373
-0.0007977804531929508
-0.0008115590447852298
-0.0008060476081483182
-0.0008005361715114068
-0.0007922690165560394
-0.0008032918898298626
-0.0008170704814221414
-0.0008308490730144205
-0.0008501391012436108
-0.0008694291294728014
-0.0009024977492942707
-0.0009024977492942707
-0.0009080091859311822
-0.0008942305943389032
-0.0008776962844281688
-0.0008942305943389032
-0.0009217877775234612
-0.0009300549324788287
-0.0009217877775234612
-0.0009410778057526519
-0.0009741464255741213
-0.0009603678339818424
-0.000952100679026475
-0.0009493449607080192
-0.0009245434958419172
-0.0009080091859311822
-0.0009410778057526519
-0.000963123552300298
-0.0009741464255741213
-0.0009493449607080192
-0.0009300549324788287
-0.0009493449607080192
-0.0009438335240711076
-0.0009438335240711076
-0.0009713907072556656
-0.0009906807354848563
-0.0009989478904402233
-0.0009824135805294888
-0.0010099707637140464
-0.0009961921721217675
-0.0009934364538033119
-0.0010072150453955906
-0.0010182379186694142
-0.001026505073624781
-0.0010513065384908833
-0.0010292607919432368
-0.0009934364538033119
-0.0010044593270771348
-0.0010237493553063252
-0.0010017036087586794
-0.0009989478904402233
-0.0010375279468986046
-0.0010320165102616929
-0.00104028366521706
-0.001043039383535516
-0.0010292607919432368
-0.001015482200350958
-0.0010485508201724275
-0.0010733522850385297
-0.0011009094682230872
-0.0010761080033569854
-0.001056817975127795
-0.0010320165102616929
-0.0010044593270771348
-0.0009989478904402233
-0.000976902143892577
-0.0009493449607080192
-0.0009906807354848563
-0.0010044593270771348
-0.0009934364538033119
-0.000979657862211033
-0.0009934364538033119
-0.001026505073624781
-0.0010292607919432368
-0.0010320165102616929
-0.0010182379186694142
-0.001026505073624781
-0.0010678408484016179
-0.0011064209048599993
-0.0011064209048599993
-0.0010953980315861755
-0.0010953980315861755
-0.0011009094682230872
-0.0010761080033569854
-0.0010623294117647064
-0.0010816194399938968
-0.0010650851300831622
-0.0011119323414969108
-0.0011229552147707339
-0.001070596566720074
-0.0010650851300831622
-0.0010540622568093393
-0.00104028366521706
-0.0009906807354848563
-0.0009052534676127264
-0.0007867575799191276
-0.0005745672693980323
-0.0003596212405584808
-0.0003100183108262768
-0.0005414986495765627
-0.00104028366521706
-0.0015693815823605713
-0.0017981062027924016
-0.0017512589913786531
-0.0016410302586404217
-0.0015583587090867482
-0.0014646642862592512
-0.0012579854123750671
-0.0011670467078660266
-0.0011091766231784547
-0.0011146880598153664
-0.0011064209048599993
-0.0010843751583123526
-0.0011064209048599993
-0.00109264231326772
-0.0010513065384908833
-0.0010761080033569854
-0.0010761080033569854
-0.0010595736934462504
-0.0010623294117647064
-0.0010540622568093393
-0.0010375279468986046
-0.001043039383535516
-0.0010292607919432368
-0.0010457951018539718
-0.0010457951018539718
-0.0010623294117647064
-0.0010678408484016179
-0.0010540622568093393
-0.0010099707637140464
-0.0010292607919432368
-0.0010237493553063252
-0.0010320165102616929
-0.001012726482032502
-0.001026505073624781
-0.0010072150453955906
-0.0009934364538033119
-0.0010017036087586794
-0.001015482200350958
-0.0010072150453955906
-0.0009989478904402233
-0.0009824135805294888
-0.0009686349889372096
-0.000976902143892577
-0.000963123552300298
-0.0009603678339818424
-0.0009741464255741213
-0.000963123552300298
-0.0009741464255741213
-0.0009686349889372096
-0.0009603678339818424
-0.0009465892423895632
-0.0009465892423895632
-0.0009713907072556656
-0.0009576121156633864
-0.0009548563973449309
-0.0009603678339818424
-0.0009410778057526519
-0.0009658792706187539
-0.0009851692988479444
-0.0009713907072556656
-0.0009603678339818424
-0.0009548563973449309
-0.000963123552300298
-0.0009658792706187539
-0.000979657862211033
-0.0009961921721217675
-0.0010237493553063252
-0.0010457951018539718
-0.0010320165102616929
-0.0010292607919432368
-0.0010347722285801487
-0.0010072150453955906
-0.0010044593270771348
-0.001012726482032502
-0.00104028366521706
-0.0010457951018539718
-0.001070596566720074
-0.0011036651865415433
-0.0011064209048599993
-0.0011146880598153664
-0.0011422452429999243
-0.0011339780880445568
-0.0011257109330891897
-0.0011257109330891897
-0.0011146880598153664
-0.0011422452429999243
-0.0011973596093690403
-0.0011835810177767614
-0.0011753138628213936
-0.0011450009613183801
-0.0011146880598153664
-0.0011450009613183801
-0.001147756679636836
-0.001147756679636836
-0.001164290989547571
-0.001186336736095217
-0.001158779552910659
-0.001186336736095217
-0.0011670467078660266
-0.001120199496452278
-0.0011284666514076451
-0.0011367338063630126
-0.0011367338063630126
-0.0011505123979552916
-0.0011394895246814685
-0.0011450009613183801
-0.0011835810177767614
-0.0011505123979552916
-0.001161535271229115
-0.0011725581445029378
-0.0011698024261844818
-0.0011725581445029378
-0.0011780695811398495
-0.0011698024261844818
-0.0011808252994583053
-0.0011725581445029378
-0.0012028710460059518
-0.0012249167925535982
-0.0011890924544136726
-0.0011890924544136726
-0.0012001153276874961
-0.001233183947508965
-0.0012166496375982305
-0.0011890924544136726
-0.001164290989547571
-0.001156023834592203
-0.0011835810177767614
-0.001147756679636836
-0.0011450009613183801
-0.001186336736095217
-0.0012056267643244074
-0.0012111382009613188
-0.0011698024261844818
-0.0011753138628213936
-0.0011146880598153664
-0.0011009094682230872
-0.0010981537499046318
-0.0011119323414969108
-0.0011284666514076451
-0.0011284666514076451
-0.00109264231326772
-0.0010898865949492643
-0.001156023834592203
-0.0011918481727321284
-0.0011918481727321284
-0.0011422452429999243
-0.001156023834592203
-0.001186336736095217
-0.001194603891050584
-0.0012028710460059518
-0.0012304282291905097
-0.0012001153276874961
-0.001186336736095217
-0.0011890924544136726
-0.0012138939192797744
-0.0012166496375982305
-0.0012056267643244074
-0.0012138939192797744
-0.0011835810177767614
-0.001208382482642863
-0.0011670467078660266
-0.0011339780880445568
-0.0011036651865415433
-0.0010099707637140464
-0.0009245434958419172
-0.0007371546501869236
-0.0005249643396658282
-0.00040922417029068495
-0.0005442543678950186
-0.0010099707637140464
-0.001544580117494469
-0.0018284191042954152
-0.0018173962310215922
-0.001748503273060197
-0.0016382745403219659
-0.0015170229343099112
-0.0013847484550240335
-0.0013186112153810948
-0.0012607411306935232
-0.0012138939192797744
-0.001158779552910659
-0.0011367338063630126
-0.0011064209048599993
-0.0011146880598153664
-0.0011091766231784547
-0.0010816194399938968
-0.0010871308766308087
-0.0010981537499046318
-0.0011725581445029378
-0.0011780695811398495
-0.0011229552147707339
-0.0011036651865415433
-0.001056817975127795
-0.00104028366521706
-0.0010623294117647064
-0.00104028366521706
-0.0010595736934462504
-0.00109264231326772
-0.0010595736934462504
-0.0010540622568093393
-0.00104028366521706
-0.0010678408484016179
-0.0011119323414969108
-0.001012726482032502
-0.0010044593270771348
-0.0010237493553063252
-0.0010017036087586794
-0.0010320165102616929
-0.001015482200350958
-0.0010513065384908833
-0.0009328106507972846
-0.0009741464255741213
-0.001026505073624781
-0.0010292607919432368
-0.0009934364538033119
-0.000979657862211033
-0.0009741464255741213
-0.0009961921721217675
-0.0009686349889372096
-0.000952100679026475
-0.0009355663691157402
-0.0009465892423895632
-0.0009713907072556656
-0.0009548563973449309
-0.0009410778057526519
-0.0009548563973449309
-0.000963123552300298
-0.0009493449607080192
-0.0009548563973449309
-0.0009658792706187539
-0.0009713907072556656
-0.0009824135805294888
-0.000979657862211033
-0.0009961921721217675
-0.0010099707637140464
-0.0010044593270771348
-0.0009879250171664002
-0.0010017036087586794
-0.0009934364538033119
-0.0009658792706187539
-0.0009879250171664002
-0.0009879250171664002
-0.0009713907072556656
-0.0009548563973449309
-0.0009851692988479444
-0.0010347722285801487
-0.0010485508201724275
-0.001070596566720074
-0.0011064209048599993
-0.0011229552147707339
-0.0011229552147707339
-0.001120199496452278
-0.001120199496452278
-0.0011091766231784547
-0.0011229552147707339
-0.0011422452429999243
-0.0011725581445029378
-0.0011698024261844818
-0.001156023834592203
-0.001156023834592203
-0.0011312223697261012
-0.0011532681162737474
-0.0011753138628213936
-0.001161535271229115
-0.0011808252994583053
-0.0011725581445029378
-0.001147756679636836
-0.0011174437781338222
-0.0011036651865415433
-0.001147756679636836
-0.0011698024261844818
-0.0011780695811398495
-0.0011808252994583053
-0.001208382482642863
-0.0011780695811398495
-0.001161535271229115
-0.0011725581445029378
-0.001158779552910659
-0.0011284666514076451
-0.0011505123979552916
-0.001156023834592203
-0.0011670467078660266
-0.001164290989547571
-0.001161535271229115
-0.0011394895246814685
-0.001158779552910659
-0.0011753138628213936
-0.0011808252994583053
-0.0011918481727321284
-0.001194603891050584
-0.0011918481727321284
-0.001161535271229115
-0.001164290989547571
-0.0011725581445029378
-0.001164290989547571
-0.0011367338063630126
-0.0011505123979552916
-0.001164290989547571
-0.001164290989547571
-0.0011450009613183801
-0.0011312223697261012
-0.0011808252994583053
-0.0011808252994583053
-0.0011284666514076451
-0.0010898865949492643
-0.0010733522850385297
-0.0010375279468986046
-0.0010678408484016179
-0.0011036651865415433
-0.0011146880598153664
-0.0011339780880445568
-0.001120199496452278
-0.0010953980315861755
-0.0010788637216754414
-0.00109264231326772
-0.001120199496452278
-0.0011229552147707339
-0.0011422452429999243
-0.001147756679636836
-0.0011339780880445568
-0.0011532681162737474
-0.0011698024261844818
-0.0012111382009613188
-0.0011918481727321284
-0.0011780695811398495
-0.0011753138628213936
-0.0011698024261844818
-0.0011394895246814685
-0.0011312223697261012
-0.001147756679636836
-0.0011890924544136726
-0.0011698024261844818
-0.0011146880598153664
-0.0010513065384908833
-0.0009713907072556656
-0.0008832077210650803
-0.0007040860303654542
-0.0004974071564812702
-0.00037615555046921565
-0.0004946514381628143
-0.0009080091859311822
-0.0014453742580300608
-0.0018008619211108575
-0.0017981062027924016
-0.0016823660334172581
-0.0015776487373159384
-0.0013737255817502102
-0.0012910540321965367
-0.001194603891050584
-0.0011505123979552916
-0.0011367338063630126
-0.0011450009613183801
-0.00109264231326772
-0.00109264231326772
-0.001120199496452278
-0.001120199496452278
-0.0010981537499046318
-0.001056817975127795
-0.0010623294117647064
-0.001070596566720074
-0.0010540622568093393
-0.0010347722285801487
-0.0010457951018539718
-0.0010623294117647064
-0.0010513065384908833
-0.0010347722285801487
-0.0010099707637140464
-0.001015482200350958
-0.0010209936369878696
-0.00104028366521706
-0.0010540622568093393
-0.0010209936369878696
-0.0010017036087586794
-0.000976902143892577
-0.0009713907072556656
-0.000979657862211033
-0.0010017036087586794
-0.0009824135805294888
-0.000952100679026475
-0.0009465892423895632
-0.0009438335240711076
-0.0009383220874341961
-0.0009245434958419172
-0.0009300549324788287
-0.0009190320592050054
-0.0009465892423895632
-0.0009410778057526519
-0.0009410778057526519
-0.0009217877775234612
-0.0008914748760204477
-0.000899742030975815
-0.0009052534676127264
-0.0008859634393835361
-0.0008804520027466246
-0.0008832077210650803
-0.0009190320592050054
-0.0009080091859311822
-0.000874940566109713
-0.0008942305943389032
-0.0008969863126573594
-0.0008942305943389032
-0.0009024977492942707
-0.0009190320592050054
-0.0009080091859311822
-0.0008804520027466246
-0.0009107649042496381
-0.0008942305943389032
-0.0008969863126573594
-0.0008859634393835361
-0.0008942305943389032
-0.0009438335240711076
-0.0009713907072556656
-0.0009603678339818424
-0.0009328106507972846
-0.0009548563973449309
-0.0009879250171664002
-0.000979657862211033
-0.0009686349889372096
-0.0009824135805294888
-0.001012726482032502
-0.0010375279468986046
-0.0010485508201724275
-0.0010347722285801487
-0.0010347722285801487
-0.0010595736934462504
-0.0010788637216754414
-0.0010623294117647064
-0.0010816194399938968
-0.0010981537499046318
-0.0010733522850385297
-0.0010788637216754414
-0.001070596566720074
-0.0010871308766308087
-0.0011091766231784547
-0.0010953980315861755
-0.001070596566720074
-0.0010678408484016179
-0.0010623294117647064
-0.0010375279468986046
-0.0010292607919432368
-0.001056817975127795
-0.0010733522850385297
-0.0010871308766308087
-0.0011064209048599993
-0.0011174437781338222
-0.0010816194399938968
-0.0010623294117647064
-0.0010375279468986046
-0.0010457951018539718
-0.0010733522850385297
-0.0010761080033569854
-0.00104028366521706
-0.0010347722285801487
-0.0010375279468986046
-0.0010540622568093393
-0.0010788637216754414
-0.0010761080033569854
-0.0010761080033569854
-0.0010595736934462504
-0.0010788637216754414
-0.0010898865949492643
-0.0010843751583123526
-0.00109264231326772
-0.0010871308766308087
-0.0010595736934462504
-0.0010623294117647064
-0.0010678408484016179
-0.0010375279468986046
-0.0010237493553063252
-0.0010595736934462504
-0.0010595736934462504
-0.0010347722285801487
-0.001015482200350958
-0.0010320165102616929
-0.0010540622568093393
-0.001015482200350958
-0.0009906807354848563
-0.0009851692988479444
-0.0009658792706187539
-0.0009548563973449309
-0.000976902143892577
-0.0009961921721217675
-0.000963123552300298
-0.000963123552300298
-0.0009741464255741213
-0.0010182379186694142
-0.0010375279468986046
-0.0010347722285801487
-0.0010292607919432368
-0.0010485508201724275
-0.001070596566720074
-0.0010733522850385297
-0.001070596566720074
-0.0010540622568093393
-0.0010347722285801487
-0.0010457951018539718
-0.001056817975127795
-0.0010733522850385297
-0.0010733522850385297
-0.0010595736934462504
-0.001026505073624781
-0.0009741464255741213
-0.0009217877775234612
-0.0009135206225680943
-0.0008914748760204477
-0.0007757347066453045
-0.000591101579308767
-0.0003403312123292903
-0.0002631710994125282
-0.00044504850843061025
-0.0008528948195620666
-0.0013571912718394756
-0.0016603202868696126
-0.0016548088502327005
-0.0015776487373159384
-0.001481198596169986
-0.0013902598916609454
-0.0012938097505149923
-0.0011808252994583053
-0.0010981537499046318
-0.001056817975127795
-0.0010457951018539718
-0.001012726482032502
-0.0009934364538033119
-0.0009548563973449309
-0.0009465892423895632
-0.000963123552300298
-0.0009686349889372096
-0.0009603678339818424
-0.0009383220874341961
-0.0009162763408865498
-0.0009245434958419172
-0.0009465892423895632
-0.0009355663691157402
-0.0009135206225680943
-0.0009052534676127264
-0.0008914748760204477
-0.0008969863126573594
-0.0008776962844281688
-0.0008694291294728014
-0.0008859634393835361
-0.0008887191577019918
-0.0008914748760204477
-0.0008887191577019918
-0.0008446276646066993
-0.0008363605096513318
-0.0008584062561989784
-0.0008446276646066993
-0.0008280933546959645
-0.0008198261997405972
-0.0008280933546959645
-0.0008280933546959645
-0.0008060476081483182
-0.0007895132982375835
-0.0008088033264667742
-0.000795024734874495
-0.0008115590447852298
-0.0008115590447852298
-0.0007757347066453045
-0.0007564446784161143
-0.0007592003967345699
-0.0007426660868238351
-0.0007619561150530257
-0.0007812461432822162
-0.0007702232700083929
-0.000745421805142291
-0.000731643213550012
-0.0007481775234607469
-0.0007509332417792025
-0.0007481775234607469
-0.0007426660868238351
-0.0007647118333714817
-0.0007977804531929508
-0.0008060476081483182
-0.000795024734874495
-0.0007812461432822162
-0.0007895132982375835
-0.000795024734874495
-0.0008005361715114068
-0.0007977804531929508
-0.0007812461432822162
-0.0007729789883268486
-0.0007840018616006722
-0.0008032918898298626
-0.0008115590447852298
-0.0008280933546959645
-0.0008473833829251552
-0.0008694291294728014
-0.0008832077210650803
-0.0009024977492942707
-0.0009107649042496381
-0.0009217877775234612
-0.0009245434958419172
-0.0009300549324788287
-0.0009300549324788287
-0.0009328106507972846
-0.0009272992141603728
-0.0009190320592050054
-0.0009300549324788287
-0.0009328106507972846
-0.0009024977492942707
-0.0009080091859311822
-0.0009135206225680943
-0.0009024977492942707
-0.0008887191577019918
-0.0008887191577019918
-0.0009135206225680943
-0.0009024977492942707
-0.0009080091859311822
-0.0009245434958419172
-0.0009410778057526519
-0.0009300549324788287
-0.0009024977492942707
-0.0008914748760204477
-0.0009410778057526519
-0.0009989478904402233
-0.000979657862211033
-0.0009328106507972846
-0.0008942305943389032
-0.0008804520027466246
-0.0008804520027466246
-0.0008694291294728014
-0.0009162763408865498
-0.0009438335240711076
-0.0009135206225680943
-0.0009135206225680943
-0.000952100679026475
-0.0009465892423895632
-0.0009576121156633864
-0.0009658792706187539
-0.000952100679026475
-0.0009548563973449309
-0.0009383220874341961
-0.0009603678339818424
-0.0009410778057526519
-0.0009217877775234612
-0.0009024977492942707
-0.0009080091859311822
-0.0009107649042496381
-0.0009217877775234612
-0.0009245434958419172
-0.0009245434958419172
-0.0009190320592050054
-0.0009355663691157402
-0.0008969863126573594
-0.0008666734111543456
-0.0008804520027466246
-0.0008721848477912571
-0.0008528948195620666
-0.0008363605096513318
-0.0008611619745174342
-0.0008528948195620666
-0.0008528948195620666
-0.0008942305943389032
-0.0008914748760204477
-0.0008887191577019918
-0.000899742030975815
-0.0009080091859311822
-0.0009162763408865498
-0.000952100679026475
-0.0009465892423895632
-0.0009548563973449309
-0.0009272992141603728
-0.0009300549324788287
-0.000952100679026475
-0.0009383220874341961
-0.0008859634393835361
-0.0008694291294728014
-0.0009576121156633864
-0.000979657862211033
-0.0009383220874341961
-0.0009328106507972846
-0.0009272992141603728
-0.0008639176928358897
-0.0007647118333714817
-0.0006076358892195017
-0.000423002761882964
-0.00024112535286488197
-0.0001226294651712832
-0.0002604153810940725
-0.0007178646219577333
-0.0012579854123750671
-0.001585915892271306
-0.0015638701457236597
-0.0014701757228961628
-0.001362702708476387
-0.0011422452429999243
-0.0010513065384908833
-0.000976902143892577
-0.0009272992141603728
-0.0008887191577019918
-0.0008776962844281688
-0.0008501391012436108
-0.0008418719462882435
-0.000874940566109713
-0.0008611619745174342
-0.0008914748760204477
-0.0008584062561989784
-0.0008005361715114068
-0.0008060476081483182
-0.0008170704814221414
-0.0008088033264667742
-0.0008060476081483182
-0.0008115590447852298
-0.000795024734874495
-0.0008005361715114068
-0.0008225819180590531
-0.0008115590447852298
-0.0008253376363775088
-0.0007895132982375835
-0.0007702232700083929
-0.0007784904249637603
-0.0007757347066453045
-0.0007371546501869236
-0.0007261317769131007
-0.0007343989318684678
-0.0007371546501869236
-0.0007536889600976582
-0.0007123531853208215
-0.000731643213550012
-0.0007343989318684678
-0.0007151089036392773
-0.0006930631570916311
-0.0006710174105439848
-0.0006792845654993521
-0.0006710174105439848
-0.0006710174105439848
-0.0006875517204547195
-0.0006765288471808962
-0.0006710174105439848
-0.0006627502555886173
-0.0006765288471808962
-0.0006847960021362637
-0.0006710174105439848
-0.0006627502555886173
-0.0006930631570916311
-0.000668261692225529
-0.0006489716639963384
-0.0006214144808117806
-0.000615903044174869
-0.0006407045090409712
-0.0006792845654993521
-0.0006847960021362637
-0.0006627502555886173
-0.0006710174105439848
-0.0006875517204547195
-0.0006710174105439848
-0.000668261692225529
-0.0007178646219577333
-0.0006765288471808962
-0.0006985745937285427
-0.0007233760585946446
-0.0007343989318684678
-0.0007343989318684678
-0.0007426660868238351
-0.0007812461432822162
-0.0007867575799191276
-0.0007674675516899373
-0.000745421805142291
-0.0007619561150530257
-0.0008308490730144205
-0.000874940566109713
-0.0008556505378805224
-0.0008528948195620666
-0.0008336047913328761
-0.0008336047913328761
-0.0008721848477912571
-0.0008859634393835361
-0.0008308490730144205
-0.0008363605096513318
-0.0008694291294728014
-0.000899742030975815
-0.0008832077210650803
-0.0008666734111543456
-0.0008721848477912571
-0.000899742030975815
-0.0008639176928358897
-0.0008336047913328761
-0.0008473833829251552
-0.0008391162279697878
-0.0008804520027466246
-0.000899742030975815
-0.0009162763408865498
-0.0008804520027466246
-0.0008694291294728014
-0.0008804520027466246
-0.0008501391012436108
-0.0008418719462882435
-0.0008253376363775088
-0.0008528948195620666
-0.0008611619745174342
-0.0008611619745174342
-0.000874940566109713
-0.0008666734111543456
-0.0008694291294728014
-0.0009024977492942707
-0.0009272992141603728
-0.0008914748760204477
-0.0008666734111543456
-0.0008969863126573594
-0.0009190320592050054
-0.0009080091859311822
-0.0008776962844281688
-0.0008859634393835361
-0.0008887191577019918
-0.0008832077210650803
-0.0008914748760204477
-0.0008776962844281688
-0.0008804520027466246
-0.0008887191577019918
-0.0008611619745174342
-0.0008556505378805224
-0.0008776962844281688
-0.0008721848477912571
-0.0008363605096513318
-0.0007977804531929508
-0.000795024734874495
-0.000795024734874495
-0.0008143147631036856
-0.0008115590447852298
-0.0008170704814221414
-0.0008363605096513318
-0.0007977804531929508
-0.0008088033264667742
-0.0008060476081483182
-0.0008115590447852298
-0.0008501391012436108
-0.0008804520027466246
-0.0008969863126573594
-0.0009190320592050054
-0.0009190320592050054
-0.0009217877775234612
-0.0008969863126573594
-0.000874940566109713
-0.0008721848477912571
-0.0008887191577019918
-0.000899742030975815
-0.0008804520027466246
-0.0008859634393835361
-0.0008776962844281688
-0.0008336047913328761
-0.0008418719462882435
-0.0008832077210650803
-0.0008060476081483182
-0.0006765288471808962
-0.0004615828183413449
-0.00020530101472495681
-3.720219729915378e-05
-0.00010609515526054846
-0.00047536140993362393
-0.0010320165102616929
-0.0015004886243991764
-0.0016189845120927755
-0.0015087557793545439
-0.0013875041733424894
-0.0012552296940566115
-0.0011009094682230872
-0.0009824135805294888
-0.0009245434958419172
-0.0008914748760204477
-0.0009107649042496381
-0.0008969863126573594
-0.0008336047913328761
-0.0008032918898298626
-0.0008198261997405972
-0.0008198261997405972
-0.0008170704814221414
-0.0007784904249637603
-0.0007867575799191276
-0.0008115590447852298
-0.0007895132982375835
-0.0007647118333714817
-0.0007536889600976582
-0.0007922690165560394
-0.0007977804531929508
-0.0007840018616006722
-0.0007922690165560394
-0.0007784904249637603
-0.0007619561150530257
-0.0007399103685053794
-0.0007261317769131007
-0.0007151089036392773
-0.0007095974670023658
-0.0007178646219577333
-0.0007068417486839102
-0.0007151089036392773
-0.0006930631570916311
-0.0007068417486839102
-0.0007013303120469984
-0.0006875517204547195
-0.0006710174105439848
-0.0006627502555886173
-0.0006599945372701616
-0.0006434602273594267
-0.0006048801709010458
-0.0006103916075379574
-0.0006076358892195017
-0.0006048801709010458
-0.0005993687342641343
-0.0005690558327611206
-0.0006214144808117806
-0.000629681635767148
-0.0006186587624933248
-0.000615903044174869
-0.0005938572976272227
-0.0005855901426718552
-0.0006076358892195017
-0.0006324373540856038
-0.0006186587624933248
-0.0006103916075379574
-0.000591101579308767
-0.0005966130159456783
-0.0005966130159456783
-0.0006076358892195017
-0.0006351930724040594
-0.0006379487907225153
-0.0006131473258564133
-0.000591101579308767
-0.000591101579308767
-0.0006048801709010458
-0.0006214144808117806
-0.0006462159456778825
-0.0006737731288624405
-0.0006737731288624405
-0.0006737731288624405
-0.0006875517204547195
-0.0006985745937285427
-0.0007123531853208215
-0.0007481775234607469
-0.0007536889600976582
-0.0007729789883268486
-0.0007922690165560394
-0.0008115590447852298
-0.0008088033264667742
-0.0008115590447852298
-0.0007867575799191276
-0.0007895132982375835
-0.0008115590447852298
-0.0008088033264667742
-0.0007867575799191276
-0.0008060476081483182
-0.0008253376363775088
-0.0008253376363775088
-0.0008198261997405972
-0.0008170704814221414
-0.0007867575799191276
-0.0007619561150530257
-0.0007867575799191276
-0.0008088033264667742
-0.0007895132982375835
-0.0007729789883268486
-0.0008225819180590531
-0.0008225819180590531
-0.0007840018616006722
-0.0007977804531929508
-0.0007867575799191276
-0.0007840018616006722
-0.0007922690165560394
-0.0007647118333714817
-0.0007509332417792025
-0.0007840018616006722
-0.0008005361715114068
-0.0007840018616006722
-0.0007729789883268486
-0.0007867575799191276
-0.0007840018616006722
-0.0008032918898298626
-0.0008005361715114068
-0.000795024734874495
-0.0008060476081483182
-0.0008060476081483182
-0.0007895132982375835
-0.0007895132982375835
-0.0007895132982375835
-0.0008088033264667742
-0.0007922690165560394
-0.0007922690165560394
-0.0007922690165560394
-0.0008088033264667742
-0.0007922690165560394
-0.0007702232700083929
-0.0007895132982375835
-0.0007647118333714817
-0.0007647118333714817
-0.000745421805142291
-0.000720620340276189
-0.0007288874952315562
-0.0007068417486839102
-0.0006792845654993521
-0.0006903074387731753
-0.0007123531853208215
-0.0007233760585946446
-0.000731643213550012
-0.0007536889600976582
-0.0007399103685053794
-0.0007619561150530257
-0.0007729789883268486
-0.0007619561150530257
-0.0007619561150530257
-0.0007647118333714817
-0.0007895132982375835
-0.0007977804531929508
-0.0007977804531929508
-0.0007840018616006722
-0.0007619561150530257
-0.0007729789883268486
-0.0008280933546959645
-0.0008225819180590531
-0.0007729789883268486
-0.0007757347066453045
-0.0007647118333714817
-0.0007233760585946446
-0.0007151089036392773
-0.0007068417486839102
-0.0006627502555886173
-0.0005607886778057534
-0.00036788839551384826
-0.00016947667658503157
-4.5469352254521147e-05
-0.00012538518348973897
-0.0004560713817044334
-0.0009080091859311822
-0.0013323898069733738
-0.0014398628213931491
-0.001365458426794843
-0.0012717640039673465
-0.0010788637216754414
-0.0009851692988479444
-0.0008776962844281688
-0.0007840018616006722
-0.0007481775234607469
-0.0007619561150530257
-0.0007371546501869236
-0.000720620340276189
-0.000720620340276189
-0.0007013303120469984
-0.0006875517204547195
-0.0007151089036392773
-0.0007371546501869236
-0.0007095974670023658
-0.0006820402838178078
-0.0006627502555886173
-0.0006655059739070732
-0.0006820402838178078
-0.0006903074387731753
-0.0006627502555886173
-0.0006351930724040594
-0.0006434602273594267
-0.0006407045090409712
-0.0006351930724040594
-0.0006379487907225153
-0.0006489716639963384
-0.000629681635767148
-0.000615903044174869
-0.0006186587624933248
-0.0005883458609903113
-0.0005855901426718552
-0.0005966130159456783
-0.0005745672693980323
-0.0005718115510795765
-0.00054976580453193
-0.0005414986495765627
-0.0005414986495765627
-0.0005690558327611206
-0.0005607886778057534
-0.0005607886778057534
-0.0005277200579842838
-0.0005249643396658282
-0.0005442543678950186
-0.0005387429312581068
-0.0005194529030289164
-0.0005249643396658282
-0.0005084300297550932
-0.00048638428320744705
-0.00048087284657053543
-0.0004615828183413449
-0.00043953707179369863
-0.00048087284657053543
-0.0005166971847104609
-0.0005166971847104609
-0.0005222086213473721
-0.0005166971847104609
-0.0005084300297550932
-0.0004891400015259028
-0.00048638428320744705
-0.0004891400015259028
-0.0005029185931181816
-0.0005387429312581068
-0.0005332314946211955
-0.0005139414663920051
-0.0005304757763027395
-0.000577322987716488
-0.0005745672693980323
-0.0005718115510795765
-0.0006103916075379574
-0.0006186587624933248
-0.0006351930724040594
-0.000629681635767148
-0.0006324373540856038
-0.0006517273823147941
-0.0006737731288624405
-0.0006847960021362637
-0.0006930631570916311
-0.0006985745937285427
-0.0006903074387731753
-0.0006958188754100868
-0.0007233760585946446
-0.0007343989318684678
-0.0006792845654993521
-0.0006930631570916311
-0.0006985745937285427
-0.0007151089036392773
-0.000731643213550012
-0.0007178646219577333
-0.0006930631570916311
-0.0006930631570916311
-0.0007013303120469984
-0.0006792845654993521
-0.0006572388189517057
-0.00065448310063325
-0.0006765288471808962
-0.0007040860303654542
-0.0007178646219577333
-0.0006930631570916311
-0.0006820402838178078
-0.0006958188754100868
-0.0007095974670023658
-0.0006985745937285427
-0.0006765288471808962
-0.0006737731288624405
-0.00065448310063325
-0.0006599945372701616
-0.0006710174105439848
-0.0006903074387731753
-0.0007123531853208215
-0.000720620340276189
-0.0006958188754100868
-0.0007013303120469984
-0.0006958188754100868
-0.0006985745937285427
-0.0007013303120469984
-0.0006847960021362637
-0.0006875517204547195
-0.0006875517204547195
-0.0007068417486839102
-0.0006930631570916311
-0.0006765288471808962
-0.0006985745937285427
-0.0007068417486839102
-0.0006765288471808962
-0.0006737731288624405
-0.0006710174105439848
-0.0006655059739070732
-0.0006599945372701616
-0.0006627502555886173
-0.0006572388189517057
-0.0006324373540856038
-0.0005828344243533996
-0.0005800787060349438
-0.0005966130159456783
-0.0006076358892195017
-0.0006131473258564133
-0.0006655059739070732
-0.0006599945372701616
-0.0006379487907225153
-0.0006765288471808962
-0.0006903074387731753
-0.0006737731288624405
-0.0006737731288624405
-0.0006903074387731753
-0.0006985745937285427
-0.0006958188754100868
-0.0006903074387731753
-0.0006958188754100868
-0.0006875517204547195
-0.0007068417486839102
-0.0007013303120469984
-0.0006655059739070732
-0.0006599945372701616
-0.0006599945372701616
-0.0006489716639963384
-0.0006627502555886173
-0.0006214144808117806
-0.0005580329594872974
-0.00047260569161516804
-0.00030726259250782084
-7.57822537575348e-05
9.782800030517979e-05
4.546935225451981e-05
-0.0003045068741893651
-0.0008143147631036856
-0.0012442068207827886
-0.0013323898069733738
-0.001266252567330435
-0.0011505123979552916
-0.001015482200350958
-0.0009024977492942707
-0.0008473833829251552
-0.0007674675516899373
-0.0006930631570916311
-0.0006985745937285427
-0.0006930631570916311
-0.0006765288471808962
-0.0006269259174486923
-0.0006407045090409712
-0.0006269259174486923
-0.0006048801709010458
-0.0005883458609903113
-0.0005855901426718552
-0.0006103916075379574
-0.0006214144808117806
-0.00060212445258259
-0.0005552772411688418
-0.0005552772411688418
-0.0005663001144426648
-0.0005580329594872974
-0.0005966130159456783
-0.0006103916075379574
-0.0005690558327611206
-0.0005414986495765627
-0.0005166971847104609
-0.0005387429312581068
-0.0005359872129396513
-0.0005139414663920051
-0.00047260569161516804
-0.0004918957198443586
-0.0005029185931181816
-0.00048362856488899143
-0.0004781171282520797
-0.00048362856488899143
-0.00048638428320744705
-0.0004615828183413449
-0.00045055994506752175
-0.000423002761882964
-0.00043402563515678713
-0.00045055994506752175
-0.00045055994506752175
-0.00041197988860914084
-0.00040095701533531767
-0.00040646845197222917
-0.00040095701533531767
-0.0003871784237430386
-0.00040095701533531767
-0.00041197988860914084
-0.00040922417029068495
-0.0003871784237430386
-0.0003954455786984061
-0.00037615555046921565
-0.0003871784237430386
-0.00039268986037995033
-0.0003816669871061273
-0.00040922417029068495
-0.00040922417029068495
-0.0003982012970168618
-0.00040922417029068495
-0.0004285141985198755
-0.00045055994506752175
-0.00045055994506752175
-0.0004560713817044334
-0.00046433853665980087
-0.0004560713817044334
-0.00046709425497825643
-0.0004781171282520797
-0.00045882710002288904
-0.00046433853665980087
-0.0004781171282520797
-0.0004918957198443586
-0.0005222086213473721
-0.0005745672693980323
-0.0005855901426718552
-0.0005607886778057534
-0.0006048801709010458
-0.0006407045090409712
-0.0006241701991302363
-0.000629681635767148
-0.0006379487907225153
-0.0006599945372701616
-0.0006379487907225153
-0.000615903044174869
-0.0006048801709010458
-0.0005993687342641343
-0.0005800787060349438
-0.0005883458609903113
-0.0006076358892195017
-0.0006048801709010458
-0.0006131473258564133
-0.000615903044174869
-0.0006269259174486923
-0.0006131473258564133
-0.00060212445258259
-0.0005966130159456783
-0.0005525215228503861
-0.0005663001144426648
-0.000629681635767148
-0.0006076358892195017
-0.0005966130159456783
-0.0005966130159456783
-0.0005993687342641343
-0.0005966130159456783
-0.000591101579308767
-0.0006103916075379574
-0.000615903044174869
-0.000615903044174869
-0.000615903044174869
-0.0005883458609903113
-0.0005855901426718552
-0.0006076358892195017
-0.0006048801709010458
-0.0006214144808117806
-0.0006351930724040594
-0.0006214144808117806
-0.00065448310063325
-0.0006407045090409712
-0.0005883458609903113
-0.0006214144808117806
-0.0006324373540856038
-0.0006324373540856038
-0.0006214144808117806
-0.0005800787060349438
-0.0005883458609903113
-0.0006103916075379574
-0.0005580329594872974
-0.0005552772411688418
-0.0006048801709010458
-0.0005635443961242091
-0.0005470100862134743
-0.0005470100862134743
-0.0005084300297550932
-0.0005166971847104609
-0.0005387429312581068
-0.0005470100862134743
-0.0005607886778057534
-0.0005800787060349438
-0.00054976580453193
-0.00054976580453193
-0.0005993687342641343
-0.0006048801709010458
-0.00060212445258259
-0.0006103916075379574
-0.0006076358892195017
-0.000615903044174869
-0.00060212445258259
-0.0006186587624933248
-0.0006048801709010458
-0.0006131473258564133
-0.0006241701991302363
-0.000629681635767148
-0.0006407045090409712
-0.0006379487907225153
-0.0006103916075379574
-0.0005966130159456783
-0.00060212445258259
-0.0005883458609903113
-0.00054976580453193
-0.00045882710002288904
-0.0003155297474631883
-0.00011436231021591582
8.404940871290084e-05
0.00018601098649576498
6.8892957961388014e-06
-0.0004422927901121546
-0.0009686349889372096
-0.0012910540321965367
-0.0012772754406042577
-0.0011808252994583053
-0.0010816194399938968
-0.0009190320592050054
-0.0006792845654993521
-0.0006324373540856038
-0.0006269259174486923
-0.000629681635767148
-0.000591101579308767
-0.0005663001144426648
-0.0005635443961242091
-0.0005718115510795765
-0.0005800787060349438
-0.0005663001144426648
-0.0005607886778057534
-0.0005607886778057534
-0.0005222086213473721
-0.000500162874799726
-0.0004891400015259028
-0.0005084300297550932
-0.0005249643396658282
-0.0005222086213473721
-0.0005332314946211955
-0.0005111857480735491
-0.00048638428320744705
-0.00046709425497825643
-0.0004698499732967123
-0.00047536140993362393
-0.00045055994506752175
-0.00045882710002288904
-0.00046709425497825643
-0.0004422927901121546
-0.00043953707179369863
-0.00045055994506752175
-0.0004312699168383313
-0.0004422927901121546
-0.00044504850843061025
-0.0004285141985198755
-0.0004312699168383313
-0.0003982012970168618
-0.00037891126878767127
-0.0003844227054245829
-0.00037615555046921565
-0.00036788839551384826
-0.0003651326771953924
-0.0003430869306477461
-0.0003293083390554673
-0.0003293083390554673
-0.0003127740291447324
-0.00031828546578164407
-0.00031828546578164407
-0.0003127740291447324
-0.00030726259250782084
-0.00030726259250782084
-0.00030726259250782084
-0.0003155297474631883
-0.0003155297474631883
-0.0003458426489662019
-0.0003568655222400251
-0.0003513540856031135
-0.0003430869306477461
-0.0003403312123292903
-0.0003430869306477461
-0.0003155297474631883
-0.00030726259250782084
-0.0003348197756923787
-0.00036237695887693665
-0.000370644113832304
-0.0003651326771953924
-0.00039268986037995033
-0.0003954455786984061
-0.00041197988860914084
-0.0004422927901121546
-0.00047260569161516804
-0.0004918957198443586
-0.0004974071564812702
-0.0005222086213473721
-0.0005580329594872974
-0.0005718115510795765
-0.0005525215228503861
-0.00054976580453193
-0.0005718115510795765
-0.000591101579308767
-0.000591101579308767
-0.0005993687342641343
-0.0005883458609903113
-0.0005663001144426648
-0.0005690558327611206
-0.0005855901426718552
-0.0005828344243533996
-0.0005635443961242091
-0.0005525215228503861
-0.0005525215228503861
-0.0005580329594872974
-0.0005607886778057534
-0.0005635443961242091
-0.0005635443961242091
-0.0005470100862134743
-0.0005387429312581068
-0.0005277200579842838
-0.00054976580453193
-0.00054976580453193
-0.0005580329594872974
-0.000577322987716488
-0.0005663001144426648
-0.0005387429312581068
-0.0005304757763027395
-0.0005166971847104609
-0.0005414986495765627
-0.0005525215228503861
-0.0005635443961242091
-0.0005525215228503861
-0.0005332314946211955
-0.0005359872129396513
-0.0005056743114366376
-0.0005029185931181816
-0.0005304757763027395
-0.0005442543678950186
-0.0005828344243533996
-0.0005855901426718552
-0.00054976580453193
-0.0005277200579842838
-0.0005332314946211955
-0.0005607886778057534
-0.00054976580453193
-0.0005332314946211955
-0.0005442543678950186
-0.0005580329594872974
-0.0005277200579842838
-0.0004781171282520797
-0.0005029185931181816
-0.0005111857480735491
-0.00048638428320744705
-0.0004312699168383313
-0.00045331566338597764
-0.00048087284657053543
-0.0004891400015259028
-0.00048638428320744705
-0.00048362856488899143
-0.0004781171282520797
-0.0004918957198443586
-0.0005056743114366376
-0.0005194529030289164
-0.0005387429312581068
-0.0005442543678950186
-0.0005359872129396513
-0.0005359872129396513
-0.0005552772411688418
-0.0005635443961242091
-0.0005580329594872974
-0.0005663001144426648
-0.00054976580453193
-0.0005359872129396513
-0.0005332314946211955
-0.0005277200579842838
-0.0005442543678950186
-0.0005442543678950186
-0.0005194529030289164
-0.00047536140993362393
-0.0004698499732967123
-0.0004285141985198755
-0.0003430869306477461
-0.00016396523994811996
8.129369039444505e-05
0.00020530101472495543
0.00010333943694209132
-0.00025765966277561676
-0.0007399103685053794
-0.0011284666514076451
-0.0011835810177767614
-0.00109264231326772
-0.0009851692988479444
-0.0008721848477912571
-0.0007812461432822162
-0.0006820402838178078
-0.0006214144808117806
-0.0005828344243533996
-0.00054976580453193
-0.0005442543678950186
-0.0005332314946211955
-0.0005084300297550932
-0.00048638428320744705
-0.0004974071564812702
-0.0004615828183413449
-0.00044504850843061025
-0.0004560713817044334
-0.00047536140993362393
-0.00047260569161516804
-0.00048087284657053543
-0.00045882710002288904
-0.0004422927901121546
-0.00043402563515678713
-0.0004147356069275966
-0.000423002761882964
-0.00040922417029068495
-0.0004202470435645082
-0.00043402563515678713
-0.0004257584802014197
-0.00040095701533531767
-0.0003954455786984061
-0.00040646845197222917
-0.0003816669871061273
-0.000370644113832304
-0.0003596212405584808
-0.00035410980392156926
-0.00037339983215075977
-0.0003458426489662019
-0.0003210411841000998
-0.00030175115587090934
-0.00031828546578164407
-0.0003375754940108345
-0.0003320640573739229
-0.00028797256427863044
-0.00029072828259708617
-0.00030726259250782084
-0.0002852168459601746
-0.00027694969100480727
-0.00025765966277561676
-0.00024388107118333775
-0.00024939250782024937
-0.00024112535286488197
-0.00022459104295414727
-0.00024112535286488197
-0.00024388107118333775
-0.00024112535286488197
-0.0002521482261387052
-0.0002466367895017936
-0.00023836963454642628
-0.0002521482261387052
-0.0002549039444571609
-0.0002549039444571609
-0.0002521482261387052
-0.00024388107118333775
-0.00023561391622797047
-0.0002604153810940725
-0.00030726259250782084
-0.0003155297474631883
-0.00030175115587090934
-0.0003045068741893651
-0.00028797256427863044
-0.0003127740291447324
-0.00036237695887693665
-0.0003954455786984061
-0.0004147356069275966
-0.00041749132524605234
-0.0004285141985198755
-0.0004560713817044334
-0.00047260569161516804
-0.0004974071564812702
-0.0004781171282520797
-0.00048362856488899143
-0.000500162874799726
-0.0004918957198443586
-0.0004781171282520797
-0.0004615828183413449
-0.00047260569161516804
-0.00048638428320744705
-0.00047536140993362393
-0.00047536140993362393
-0.0004698499732967123
-0.00046709425497825643
-0.00048087284657053543
-0.000500162874799726
-0.00047260569161516804
-0.0004615828183413449
-0.00045882710002288904
-0.0004698499732967123
-0.0004615828183413449
-0.0004285141985198755
-0.00044504850843061025
-0.0004560713817044334
-0.00043953707179369863
-0.00043678135347524285
-0.00045331566338597764
-0.0004698499732967123
-0.0004698499732967123
-0.00045331566338597764
-0.00046709425497825643
-0.0004615828183413449
-0.0004781171282520797
-0.0004946514381628143
-0.0005056743114366376
-0.000500162874799726
-0.00047260569161516804
-0.00046433853665980087
-0.00046709425497825643
-0.0004918957198443586
-0.00047260569161516804
-0.0004615828183413449
-0.00046433853665980087
-0.00045055994506752175
-0.00046709425497825643
-0.0004891400015259028
-0.00048638428320744705
-0.00047536140993362393
-0.000500162874799726
-0.0004974071564812702
-0.0004946514381628143
-0.00047260569161516804
-0.0004781171282520797
-0.0004560713817044334
-0.0004147356069275966
-0.00041197988860914084
-0.00040922417029068495
-0.00041197988860914084
-0.00039268986037995033
-0.00040095701533531767
-0.00041749132524605234
-0.00043953707179369863
-0.00043402563515678713
-0.000423002761882964
-0.0004257584802014197
-0.00044504850843061025
-0.0004781171282520797
-0.0005056743114366376
-0.00048638428320744705
-0.0004891400015259028
-0.0005029185931181816
-0.000500162874799726
-0.00046709425497825643
-0.0004781171282520797
-0.0004974071564812702
-0.0005084300297550932
-0.0005029185931181816
-0.0004781171282520797
-0.00047536140993362393
-0.00045882710002288904
-0.00044504850843061025
-0.0004422927901121546
-0.0004147356069275966
-0.00037891126878767127
-0.00027970540932326305
-0.00011436231021591582
0.00011160659189745871
0.000263171099412527
0.00022459104295414594
-0.00010885087357900426
-0.0006351930724040594
-0.0010540622568093393
-0.001147756679636836
-0.0010457951018539718
-0.0009217877775234612
-0.0008088033264667742
-0.0006985745937285427
-0.000591101579308767
-0.0005194529030289164
-0.0004974071564812702
-0.0004781171282520797
-0.0004891400015259028
-0.0004698499732967123
-0.00045331566338597764
-0.00046433853665980087
-0.0004615828183413449
-0.0004147356069275966
-0.0003871784237430386
-0.00037339983215075977
-0.00037339983215075977
-0.0003844227054245829
-0.0003982012970168618
-0.0003816669871061273
-0.00037615555046921565
-0.000370644113832304
-0.0003458426489662019
-0.0003320640573739229
-0.0003816669871061273
-0.00037891126878767127
-0.000370644113832304
-0.0003651326771953924
-0.0003375754940108345
-0.0003155297474631883
-0.0003320640573739229
-0.0003403312123292903
-0.0003127740291447324
-0.00031828546578164407
-0.00029348400091554195
-0.00029072828259708617
-0.0002852168459601746
-0.0002604153810940725
-0.0002549039444571609
-0.0002466367895017936
-0.00023285819790951464
-0.00023285819790951464
-0.00023010247959105888
-0.0002190796063172357
-0.00023285819790951464
-0.00023836963454642628
-0.00023010247959105888
-0.0002190796063172357
-0.00018049954985885472
-0.0001777438315403989
-0.00019152242313267784
-0.00017498811322194308
-0.00019427814145113364
-0.0002080567330434125
-0.0002218353246356915
-0.0002108124513618684
-0.0002190796063172357
-0.00019703385976958942
-0.00019152242313267784
-0.00015569808499275262
-0.00019152242313267784
-0.00022734676127260308
-0.0002190796063172357
-0.00020530101472495681
-0.0002108124513618684
-0.0002190796063172357
-0.00023836963454642628
-0.00023561391622797047
-0.00026592681773098404
-0.00025765966277561676
-0.00026592681773098404
-0.00035410980392156926
-0.0003458426489662019
-0.00037891126878767127
-0.00040646845197222917
-0.0004202470435645082
-0.00044504850843061025
-0.0004422927901121546
-0.0004560713817044334
-0.0004615828183413449
-0.00043953707179369863
-0.000447804226749066
-0.000500162874799726
-0.0005249643396658282
-0.00048362856488899143
-0.0004698499732967123
-0.0004781171282520797
-0.00047260569161516804
-0.00048362856488899143
-0.0004698499732967123
-0.00044504850843061025
-0.0004285141985198755
-0.0004257584802014197
-0.00045055994506752175
-0.00047260569161516804
-0.00043678135347524285
-0.00044504850843061025
-0.00046433853665980087
-0.00045331566338597764
-0.00046709425497825643
-0.00044504850843061025
-0.00041749132524605234
-0.00043402563515678713
-0.00043402563515678713
-0.0004312699168383313
-0.00045055994506752175
-0.00047260569161516804
-0.0004918957198443586
-0.0004257584802014197
-0.00040371273365377345
-0.00047260569161516804
-0.0005029185931181816
-0.00048087284657053543
-0.00045882710002288904
-0.0004312699168383313
-0.000447804226749066
-0.00045882710002288904
-0.000500162874799726
-0.0004781171282520797
-0.0004560713817044334
-0.00048638428320744705
-0.0005056743114366376
-0.0004698499732967123
-0.00043402563515678713
-0.0004615828183413449
-0.00047536140993362393
-0.0004781171282520797
-0.00048638428320744705
-0.0004615828183413449
-0.00047260569161516804
-0.00048362856488899143
-0.00047260569161516804
-0.000447804226749066
-0.00044504850843061025
-0.00045331566338597764
-0.0004615828183413449
-0.0004781171282520797
-0.0004698499732967123
-0.00043953707179369863
-0.00040646845197222917
-0.0003982012970168618
-0.0003513540856031135
-0.00039268986037995033
-0.0004312699168383313
-0.0004312699168383313
-0.00043678135347524285
-0.0004257584802014197
-0.0003954455786984061
-0.00040646845197222917
-0.0004312699168383313
-0.00045882710002288904
-0.0005056743114366376
-0.00047536140993362393
-0.0004422927901121546
-0.00045055994506752175
-0.00047260569161516804
-0.000447804226749066
-0.00047260569161516804
-0.0005525215228503861
-0.0005139414663920051
-0.0004312699168383313
-0.00043402563515678713
-0.00048638428320744705
-0.00047260569161516804
-0.0004422927901121546
-0.000447804226749066
-0.00043402563515678713
-0.0003568655222400251
-0.00018876670481422206
7.30265354390777e-05
0.0003375754940108332
0.000469849973296711
0.0003127740291447311
-0.00013089662012665053
-0.0007151089036392773
-0.001158779552910659
-0.001222161074235142
-0.0010650851300831622
-0.0009217877775234612
-0.000795024734874495
-0.0006710174105439848
-0.0005828344243533996
-0.0005222086213473721
-0.00045882710002288904
-0.00043678135347524285
-0.00040922417029068495
-0.00041749132524605234
-0.0004560713817044334
-0.00043953707179369863
-0.0003982012970168618
-0.00041197988860914084
-0.00040095701533531767
-0.0003871784237430386
-0.0003458426489662019
-0.0003210411841000998
-0.0003651326771953924
-0.0003651326771953924
-0.0003430869306477461
-0.0003375754940108345
-0.0003651326771953924
-0.0003485983672846577
-0.0003320640573739229
-0.00037615555046921565
-0.0003485983672846577
-0.00031828546578164407
-0.0003375754940108345
-0.0003320640573739229
-0.0003210411841000998
-0.00029348400091554195
-0.00027419397268635144
-0.00027143825436789566
-0.00026592681773098404
-0.0002686825360494398
-0.00027694969100480727
-0.00026592681773098404
-0.00022459104295414727
-0.0002108124513618684
-0.0002108124513618684
-0.00021356816968032413
-0.00021632388799877996
-0.00023010247959105888
-0.00024112535286488197
-0.00020254529640650095
-0.00016672095826657574
-0.00017498811322194308
-0.0001997895780880452
-0.00017498811322194308
-0.0001777438315403989
-0.00019152242313267784
-0.0001777438315403989
-0.0001777438315403989
-0.00018325526817731047
-0.0001997895780880452
-0.00019427814145113364
-0.00018325526817731047
-0.00019152242313267784
-0.00018325526817731047
-0.00016947667658503157
-0.00016672095826657574
-0.00016672095826657574
-0.00017498811322194308
-0.0001997895780880452
-0.00022459104295414727
-0.00022734676127260308
-0.00023010247959105888
-0.00022734676127260308
-0.00025765966277561676
-0.0002824611276417188
-0.00030175115587090934
-0.0003127740291447324
-0.0003568655222400251
-0.00040095701533531767
-0.0004147356069275966
-0.00040922417029068495
-0.00040646845197222917
-0.00040371273365377345
-0.0004285141985198755
-0.00045331566338597764
-0.00046709425497825643
-0.00047536140993362393
-0.00048087284657053543
-0.00046709425497825643
-0.00046709425497825643
-0.0004891400015259028
-0.000500162874799726
-0.00048087284657053543
-0.00043953707179369863
-0.00043953707179369863
-0.00043953707179369863
-0.00046709425497825643
-0.0004946514381628143
-0.00046433853665980087
-0.0004257584802014197
-0.0004285141985198755
-0.00045331566338597764
-0.00046709425497825643
-0.00045331566338597764
-0.0004698499732967123
-0.0004698499732967123
-0.0004698499732967123
-0.0004560713817044334
-0.0004312699168383313
-0.0004422927901121546
-0.00044504850843061025
-0.0004422927901121546
-0.0004422927901121546
-0.00047536140993362393
-0.0004891400015259028
-0.00047536140993362393
-0.00044504850843061025
-0.00044504850843061025
-0.00043678135347524285
-0.0004615828183413449
-0.0004891400015259028
-0.00048362856488899143
-0.000500162874799726
-0.0005139414663920051
-0.0005139414663920051
-0.0004918957198443586
-0.00047260569161516804
-0.00047260569161516804
-0.00045331566338597764
-0.0004560713817044334
-0.0004781171282520797
-0.00048362856488899143
-0.0004918957198443586
-0.0004891400015259028
-0.00045882710002288904
-0.00048638428320744705
-0.0004974071564812702
-0.00048087284657053543
-0.0004974071564812702
-0.0004560713817044334
-0.00044504850843061025
-0.00046709425497825643
-0.0004891400015259028
-0.00045882710002288904
-0.00043953707179369863
-0.0004285141985198755
-0.0004257584802014197
-0.0004285141985198755
-0.000423002761882964
-0.0003816669871061273
-0.0003871784237430386
-0.000423002761882964
-0.0004147356069275966
-0.00037891126878767127
-0.00039268986037995033
-0.00043678135347524285
-0.00043678135347524285
-0.00043402563515678713
-0.00043678135347524285
-0.00040095701533531767
-0.0004285141985198755
-0.00047536140993362393
-0.000500162874799726
-0.0005029185931181816
-0.0004891400015259028
-0.0004560713817044334
-0.00047260569161516804
-0.0004781171282520797
-0.0004698499732967123
-0.00045331566338597764
-0.0004615828183413449
-0.00043402563515678713
-0.00040371273365377345
-0.00037615555046921565
-0.0003403312123292903
-0.00027970540932326305
-0.00019427814145113364
-9.64501411459592e-06
0.00024112535286488067
0.0003348197756923775
0.00018049954985885336
-0.00023836963454642628
-0.0007647118333714817
-0.0010898865949492643
-0.00109264231326772
-0.0009851692988479444
-0.0008942305943389032
-0.0008253376363775088
-0.0007040860303654542
-0.0005938572976272227
-0.0005304757763027395
-0.00048638428320744705
-0.0004312699168383313
-0.0003982012970168618
-0.00040646845197222917
-0.00041749132524605234
-0.00040922417029068495
-0.00040095701533531767
-0.00040922417029068495
-0.0003982012970168618
-0.00037615555046921565
-0.00036788839551384826
-0.0003651326771953924
-0.0003513540856031135
-0.0003403312123292903
-0.0003458426489662019
-0.0003375754940108345
-0.00032379690241855563
-0.0003210411841000998
-0.0003045068741893651
-0.00030726259250782084
-0.0003403312123292903
-0.0003320640573739229
-0.00031828546578164407
-0.0002962397192339978
-0.0002852168459601746
-0.00024939250782024937
-0.00023285819790951464
-0.00027694969100480727
-0.0003045068741893651
-0.00026592681773098404
-0.00024388107118333775
-0.00025765966277561676
-0.00024112535286488197
-0.0002218353246356915
-0.00022734676127260308
-0.00020530101472495681
-0.0001777438315403989
-0.00018601098649576628
-0.00023010247959105888
-0.00022734676127260308
-0.00018049954985885472
-0.00014191949340047367
-0.00014467521171892948
-0.00015569808499275262
-0.00014191949340047367
-0.00013089662012665053
-0.00014467521171892948
-0.00014191949340047367
-0.0001198737468528274
-0.00012814090180819475
-0.00015294236667429682
-0.00014191949340047367
-0.00014191949340047367
-0.0001391637750820179
-0.0001336523384451063
-0.00012814090180819475
-0.00015294236667429682
-0.00016947667658503157
-0.00016396523994811996
-0.0001612095216296642
-0.00017223239490348733
-0.00020530101472495681
-0.00023561391622797047
-0.00023836963454642628
-0.00024388107118333775
-0.00024112535286488197
-0.0002466367895017936
-0.00027143825436789566
-0.0003045068741893651
-0.0003348197756923787
-0.00036237695887693665
-0.0003816669871061273
-0.0003954455786984061
-0.0003871784237430386
-0.0003954455786984061
-0.0003899341420614945
-0.0003844227054245829
-0.0003899341420614945
-0.00040095701533531767
-0.00040095701533531767
-0.00040095701533531767
-0.00041749132524605234
-0.00043402563515678713
-0.0004202470435645082
-0.00039268986037995033
-0.00037339983215075977
-0.0003899341420614945
-0.0003954455786984061
-0.0003816669871061273
-0.0003816669871061273
-0.0003651326771953924
-0.0003596212405584808
-0.00037615555046921565
-0.0003871784237430386
-0.000370644113832304
-0.00036788839551384826
-0.00036788839551384826
-0.00036237695887693665
-0.00037615555046921565
-0.0003844227054245829
-0.00040095701533531767
-0.00037615555046921565
-0.0003513540856031135
-0.00036237695887693665
-0.000370644113832304
-0.00036237695887693665
-0.0003596212405584808
-0.0003513540856031135
-0.0003485983672846577
-0.000370644113832304
-0.0003816669871061273
-0.0003899341420614945
-0.0003899341420614945
-0.0003982012970168618
-0.00040095701533531767
-0.00040922417029068495
-0.0003871784237430386
-0.0003816669871061273
-0.0003954455786984061
-0.0003871784237430386
-0.00040922417029068495
-0.0003899341420614945
-0.000370644113832304
-0.0003816669871061273
-0.0003982012970168618
-0.0003871784237430386
-0.0003844227054245829
-0.00037615555046921565
-0.0003596212405584808
-0.0003596212405584808
-0.00036237695887693665
-0.0003430869306477461
-0.0003045068741893651
-0.0002852168459601746
-0.0002852168459601746
-0.00030726259250782084
-0.0003127740291447324
-0.0003100183108262768
-0.0003127740291447324
-0.0003430869306477461
-0.0003485983672846577
-0.0003293083390554673
-0.0003430869306477461
-0.00037891126878767127
-0.00039268986037995033
-0.0003871784237430386
-0.00037891126878767127
-0.00037615555046921565
-0.00037891126878767127
-0.0003954455786984061
-0.0003844227054245829
-0.0003954455786984061
-0.0003899341420614945
-0.0003568655222400251
-0.00035410980392156926
-0.00037339983215075977
-0.00037615555046921565
-0.0003513540856031135
-0.0003375754940108345
-0.00032655262073701135
-0.0002962397192339978
-0.0002080567330434125
-5.3736507209888505e-05
0.00016396523994811866
0.000365132677195391
0.0003982012970168605
0.00012262946517128183
-0.00030175115587090934
-0.0007674675516899373
-0.0010209936369878696
-0.0009934364538033119
-0.0008804520027466246
-0.0007702232700083929
-0.0006847960021362637
-0.0005938572976272227
-0.000500162874799726
-0.0004422927901121546
-0.0003954455786984061
-0.00037891126878767127
-0.00036237695887693665
-0.0003485983672846577
-0.0003293083390554673
-0.0003045068741893651
-0.00030726259250782084
-0.0003100183108262768
-0.0003100183108262768
-0.00027694969100480727
-0.00026592681773098404
-0.00024388107118333775
-0.0002466367895017936
-0.0002521482261387052
-0.0002604153810940725
-0.0002686825360494398
-0.00024388107118333775
-0.00023561391622797047
-0.0002466367895017936
-0.00023010247959105888
-0.0002218353246356915
-0.00023561391622797047
-0.00024939250782024937
-0.00024112535286488197
-0.00020530101472495681
-0.00018049954985885472
-0.00016396523994811996
-0.00016672095826657574
-0.00016396523994811996
-0.00015569808499275262
-0.00014467521171892948
-0.00015569808499275262
-0.00015294236667429682
-0.00014743093003738526
-0.00010609515526054846
-9.507228198672531e-05
-9.507228198672531e-05
-8.404940871290214e-05
-0.00011436231021591582
-8.129369039444639e-05
-4.8225070572976926e-05
-3.995791561760957e-05
-3.720219729915378e-05
-6.200366216525588e-05
-6.475938048371164e-05
-3.995791561760957e-05
-5.098078889143272e-05
-6.751509880216745e-05
-6.200366216525588e-05
-5.3736507209888505e-05
-5.6492225528344285e-05
-5.9247943846800084e-05
-8.680512703135793e-05
-8.404940871290214e-05
-6.475938048371164e-05
-4.2713633936065354e-05
-3.720219729915378e-05
-5.3736507209888505e-05
-8.956084534981374e-05
-0.00010058371862363688
-9.78280003051811e-05
-9.78280003051811e-05
-0.00010885087357900426
-0.0001612095216296642
-0.0002218353246356915
-0.00021632388799877996
-0.00023836963454642628
-0.0002631710994125282
-0.00027694969100480727
-0.0002852168459601746
-0.0002989954375524536
-0.0003155297474631883
-0.00032655262073701135
-0.0003293083390554673
-0.0003320640573739229
-0.0003430869306477461
-0.000370644113832304
-0.0003816669871061273
-0.0003348197756923787
-0.0003127740291447324
-0.00032379690241855563
-0.00030726259250782084
-0.0003155297474631883
-0.00031828546578164407
-0.00029348400091554195
-0.0003210411841000998
-0.0003210411841000998
-0.0002962397192339978
-0.0003045068741893651
-0.00032379690241855563
-0.00030726259250782084
-0.00029348400091554195
-0.00030175115587090934
-0.00031828546578164407
-0.00030726259250782084
-0.00029348400091554195
-0.00027419397268635144
-0.0002604153810940725
-0.00027694969100480727
-0.0002824611276417188
-0.00029072828259708617
-0.00030175115587090934
-0.0003155297474631883
-0.0003045068741893651
-0.0002962397192339978
-0.0003045068741893651
-0.0002962397192339978
-0.00030726259250782084
-0.0003155297474631883
-0.0003045068741893651
-0.0002989954375524536
-0.00031828546578164407
-0.0003348197756923787
-0.0003403312123292903
-0.00031828546578164407
-0.00030175115587090934
-0.0003045068741893651
-0.00030726259250782084
-0.00031828546578164407
-0.00031828546578164407
-0.0003293083390554673
-0.0003348197756923787
-0.0003155297474631883
-0.0002962397192339978
-0.00029348400091554195
-0.0003100183108262768
-0.0003127740291447324
-0.0003348197756923787
-0.0003127740291447324
-0.0002686825360494398
-0.00022734676127260308
-0.0002190796063172357
-0.00024388107118333775
-0.0002466367895017936
-0.0002466367895017936
-0.00024939250782024937
-0.00024939250782024937
-0.00025765966277561676
-0.0002824611276417188
-0.00027694969100480727
-0.00027694969100480727
-0.00032379690241855563
-0.0003293083390554673
-0.00035410980392156926
-0.00030726259250782084
-0.0003100183108262768
-0.0003293083390554673
-0.0002962397192339978
-0.0002962397192339978
-0.0003348197756923787
-0.00036237695887693665
-0.0003458426489662019
-0.0003348197756923787
-0.00032655262073701135
-0.00029072828259708617
-0.00027419397268635144
-0.00024939250782024937
-0.00024112535286488197
-0.00014467521171892948
4.133577477683014e-06
0.0002190796063172344
0.00042575848020141833
0.0004367813534752416
0.000210812451361867
-0.00024939250782024937
-0.0007619561150530257
-0.0009879250171664002
-0.0009658792706187539
-0.0008694291294728014
-0.0007564446784161143
-0.00065448310063325
-0.0005387429312581068
-0.0004422927901121546
-0.0003568655222400251
-0.0003320640573739229
-0.0003375754940108345
-0.00029348400091554195
-0.0002604153810940725
-0.00027143825436789566
-0.0002852168459601746
-0.0002962397192339978
-0.00026592681773098404
-0.00023010247959105888
-0.00023285819790951464
-0.00022459104295414727
-0.00023010247959105888
-0.00023561391622797047
-0.00022734676127260308
-0.00023285819790951464
-0.0002190796063172357
-0.00023010247959105888
-0.00023010247959105888
-0.00023285819790951464
-0.00022734676127260308
-0.00018876670481422206
-0.00017223239490348733
-0.00017223239490348733
-0.00019152242313267784
-0.00017223239490348733
-0.00014467521171892948
-0.0001198737468528274
-0.00014191949340047367
-0.0001391637750820179
-0.00014191949340047367
-0.00014467521171892948
-0.00017498811322194308
-0.0001364080567635621
-7.027081712062322e-05
-5.098078889143272e-05
-8.956084534981374e-05
-0.00011436231021591582
-3.169076066224221e-05
-1.7912169069963278e-05
-3.720219729915378e-05
-2.8935042343786426e-05
-2.6179324025330647e-05
-1.7912169069963278e-05
-3.4446478980697995e-05
-3.720219729915378e-05
6.8892957961388014e-06
2.3423605706873515e-05
3.9957915617608246e-05
-4.133577477684346e-06
-3.4446478980697995e-05
-3.169076066224221e-05
-2.8935042343786426e-05
-1.7912169069963278e-05
-6.889295796140132e-06
-4.133577477684346e-06
1.3778591592272275e-06
-2.6179324025330647e-05
-5.6492225528344285e-05
-8.129369039444639e-05
-7.57822537575348e-05
-5.098078889143272e-05
-5.6492225528344285e-05
-8.129369039444639e-05
-0.00010885087357900426
-0.00016396523994811996
-0.0002080567330434125
-0.00023836963454642628
-0.00024939250782024937
-0.00027143825436789566
-0.0002604153810940725
-0.0002824611276417188
-0.0002962397192339978
-0.00027694969100480727
-0.0002989954375524536
-0.00030175115587090934
-0.0003320640573739229
-0.0003348197756923787
-0.0003155297474631883
-0.0003430869306477461
-0.00037615555046921565
-0.00035410980392156926
-0.0003348197756923787
-0.0003403312123292903
-0.0003403312123292903
-0.0003403312123292903
-0.00032379690241855563
-0.00032655262073701135
-0.0003375754940108345
-0.0003348197756923787
-0.00031828546578164407
-0.0003155297474631883
-0.0003045068741893651
-0.00029348400091554195
-0.00030726259250782084
-0.00032379690241855563
-0.0003293083390554673
-0.00032379690241855563
-0.0003293083390554673
-0.00031828546578164407
-0.00030726259250782084
-0.0002989954375524536
-0.0003430869306477461
-0.0003348197756923787
-0.0002989954375524536
-0.00031828546578164407
-0.0003045068741893651
-0.00029072828259708617
-0.00029072828259708617
-0.00032655262073701135
-0.0003485983672846577
-0.0003458426489662019
-0.0003403312123292903
-0.00035410980392156926
-0.0003513540856031135
-0.0003596212405584808
-0.0003485983672846577
-0.0003513540856031135
-0.0003375754940108345
-0.0003375754940108345
-0.0003485983672846577
-0.0003403312123292903
-0.0003375754940108345
-0.0003513540856031135
-0.0003458426489662019
-0.0003568655222400251
-0.0003596212405584808
-0.0003485983672846577
-0.0003430869306477461
-0.0003375754940108345
-0.0003293083390554673
-0.0003568655222400251
-0.0003568655222400251
-0.0003348197756923787
-0.0003210411841000998
-0.00032379690241855563
-0.00028797256427863044
-0.0002521482261387052
-0.00027419397268635144
-0.0002852168459601746
-0.00028797256427863044
-0.00027419397268635144
-0.00027970540932326305
-0.00028797256427863044
-0.0002962397192339978
-0.00029348400091554195
-0.0002852168459601746
-0.00026592681773098404
-0.00027419397268635144
-0.00028797256427863044
-0.00031828546578164407
-0.0003210411841000998
-0.0003485983672846577
-0.0003596212405584808
-0.00035410980392156926
-0.0003375754940108345
-0.0003430869306477461
-0.0003596212405584808
-0.0003568655222400251
-0.0003458426489662019
-0.0003403312123292903
-0.00035410980392156926
-0.00036237695887693665
-0.00031828546578164407
-0.00029072828259708617
-0.00029348400091554195
-0.00021632388799877996
-7.302653543907902e-05
0.00013365233844510492
0.00037615555046921414
0.0005497658045319286
0.0004974071564812689
0.00012262946517128183
-0.0004202470435645082
-0.0010209936369878696
-0.0009245434958419172
-0.0008032918898298626
-0.0007013303120469984
-0.000577322987716488
-0.00047260569161516804
-0.0003982012970168618
-0.0003871784237430386
-0.0003816669871061273
-0.00036237695887693665
-0.0003375754940108345
-0.0003100183108262768
-0.00027143825436789566
-0.0002686825360494398
-0.00027970540932326305
-0.00027694969100480727
-0.0002631710994125282
-0.00025765966277561676
-0.00024388107118333775
-0.0002466367895017936
-0.00024939250782024937
-0.0002218353246356915
-0.00022459104295414727
-0.00024112535286488197
-0.0002466367895017936
-0.00023010247959105888
-0.00021356816968032413
-0.00022734676127260308
-0.00023285819790951464
-0.00021356816968032413
-0.00019152242313267784
-0.00017498811322194308
-0.00018601098649576628
-0.00019152242313267784
-0.0001997895780880452
-0.00018601098649576628
-0.00015294236667429682
-0.00014743093003738526
-0.00015294236667429682
-0.00014191949340047367
-0.0001171180285343716
-8.129369039444639e-05
-8.956084534981374e-05
-0.0001198737468528274
-0.00010885087357900426
-8.404940871290214e-05
-9.78280003051811e-05
-0.00010609515526054846
-0.00011160659189746003
-6.751509880216745e-05
1.3778591592272275e-06
2.066788738841773e-05
9.64501411459459e-06
-1.240073243305171e-05
-4.133577477684346e-06
-2.342360570687485e-05
-2.8935042343786426e-05
-9.64501411459592e-06
-1.377859159228559e-06
-1.240073243305171e-05
-3.4446478980697995e-05
-5.6492225528344285e-05
-5.098078889143272e-05
-2.8935042343786426e-05
-5.6492225528344285e-05
-7.027081712062322e-05
-5.098078889143272e-05
-3.169076066224221e-05
-0.00010885087357900426
-0.00011160659189746003
-0.0001171180285343716
-0.00014467521171892948
-0.00016672095826657574
-0.00022459104295414727
-0.0002549039444571609
-0.00023010247959105888
-0.00023561391622797047
-0.0002686825360494398
-0.00028797256427863044
-0.0003100183108262768
-0.0003403312123292903
-0.0003348197756923787
-0.00031828546578164407
-0.0003375754940108345
-0.0003348197756923787
-0.0003045068741893651
-0.0003100183108262768
-0.0003293083390554673
-0.0003320640573739229
-0.0003210411841000998
-0.0003210411841000998
-0.00032655262073701135
-0.00032379690241855563
-0.0003155297474631883
-0.0003375754940108345
-0.0003375754940108345
-0.0003127740291447324
-0.00028797256427863044
-0.0002852168459601746
-0.0002989954375524536
-0.00029072828259708617
-0.0002686825360494398
-0.0002521482261387052
-0.0002686825360494398
-0.0002962397192339978
-0.0003320640573739229
-0.0003155297474631883
-0.00027970540932326305
-0.00027694969100480727
-0.0002824611276417188
-0.00030175115587090934
-0.0002852168459601746
-0.00027419397268635144
-0.00029348400091554195
-0.0002989954375524536
-0.0002962397192339978
-0.00028797256427863044
-0.0002686825360494398
-0.00023836963454642628
-0.0002604153810940725
-0.0002824611276417188
-0.0002852168459601746
-0.00030175115587090934
-0.0003127740291447324
-0.00030175115587090934
-0.00029072828259708617
-0.00030175115587090934
-0.0003100183108262768
-0.0003155297474631883
-0.00027970540932326305
-0.0002604153810940725
-0.00029072828259708617
-0.00030726259250782084
-0.00029072828259708617
-0.00027143825436789566
-0.00027970540932326305
-0.0002852168459601746
-0.00027143825436789566
-0.0002549039444571609
-0.00024112535286488197
-0.00024112535286488197
-0.00022734676127260308
-0.00019152242313267784
-0.00019152242313267784
-0.00018601098649576628
-0.0002190796063172357
-0.0002218353246356915
-0.00020254529640650095
-0.00019427814145113364
-0.00019427814145113364
-0.00023010247959105888
-0.0002521482261387052
-0.00025765966277561676
-0.00026592681773098404
-0.00027694969100480727
-0.00026592681773098404
-0.00027419397268635144
-0.00028797256427863044
-0.0002989954375524536
-0.0002631710994125282
-0.00023561391622797047
-0.00023285819790951464
-0.00027694969100480727
-0.00028797256427863044
-0.00027694969100480727
-0.0002604153810940725
-0.00024112535286488197
-0.0002218353246356915
-0.00018325526817731047
-0.00012814090180819475
-7.027081712062322e-05
8.68051270313566e-05
0.00027143825436789435
0.0004009570153353164
0.00035135408560311223
5.9247943846798756e-05
-0.0003430869306477461
-0.0007123531853208215
-0.0008418719462882435
-0.0008446276646066993
-0.0007840018616006722
-0.000668261692225529
-0.0005718115510795765
-0.00044504850843061025
-0.0003596212405584808
-0.0003100183108262768
-0.00027694969100480727
-0.0002631710994125282
-0.0002604153810940725
-0.00023836963454642628
-0.00022734676127260308
-0.00021356816968032413
-0.00018325526817731047
-0.00018876670481422206
-0.00018876670481422206
-0.00018876670481422206
-0.00021356816968032413
-0.0002190796063172357
-0.00017223239490348733
-0.00015569808499275262
-0.0001612095216296642
-0.0001612095216296642
