-6.200366216525588e-05
-1.240073243305171e-05
2.3423605706873515e-05
4.271363393606403e-05
5.373650720988717e-05
4.82250705729756e-05
5.649222552834297e-05
6.751509880216611e-05
6.751509880216611e-05
2.066788738841773e-05
-9.64501411459592e-06
-9.64501411459592e-06
1.3778591592272275e-06
2.8935042343785094e-05
6.475938048371032e-05
6.475938048371032e-05
4.546935225451981e-05
3.444647898069667e-05
1.7912169069961946e-05
4.133577477683014e-06
-1.240073243305171e-05
-1.377859159228559e-06
3.169076066224089e-05
3.720219729915245e-05
2.8935042343785094e-05
4.546935225451981e-05
3.720219729915245e-05
-1.7912169069963278e-05
1.5156450751506162e-05
0.00010333943694209132
8.956084534981241e-05
7.578225375753347e-05
8.404940871290084e-05
5.098078889143139e-05
4.271363393606403e-05
2.8935042343785094e-05
4.82250705729756e-05
8.404940871290084e-05
0.00010333943694209132
9.23165636682682e-05
3.444647898069667e-05
4.546935225451981e-05
9.507228198672396e-05
9.23165636682682e-05
6.200366216525454e-05
6.751509880216611e-05
9.507228198672396e-05
0.00011436231021591448
0.00013089662012664922
0.00014743093003738393
8.404940871290084e-05
6.8892957961388014e-06
4.546935225451981e-05
0.00010058371862363556
0.00010058371862363556
0.00012814090180819342
0.00012814090180819342
9.507228198672396e-05
7.853797207598924e-05
6.200366216525454e-05
3.169076066224089e-05
2.6179324025329308e-05
3.169076066224089e-05
2.066788738841773e-05
9.64501411459459e-06
-9.64501411459592e-06
1.3778591592272275e-06
2.8935042343785094e-05
3.444647898069667e-05
1.5156450751506162e-05
2.066788738841773e-05
2.066788738841773e-05
2.3423605706873515e-05
1.5156450751506162e-05
2.066788738841773e-05
4.82250705729756e-05
8.68051270313566e-05
0.00011711802853437029
0.00019427814145113231
0.0004064684519722279
0.0006847960021362622
0.0010457951018539703
0.0013571912718394743
0.0013516798352025624
0.001048550820172426
0.000560788677805752
8.404940871290084e-05
-0.00018876670481422206
-0.0002466367895017936
-0.0001997895780880452
-0.00014467521171892948
-9.78280003051811e-05
-3.4446478980697995e-05
-6.889295796140132e-06
-5.3736507209888505e-05
-8.680512703135793e-05
-0.00010333943694209268
-8.680512703135793e-05
-6.200366216525588e-05
-0.00012538518348973897
-0.0001364080567635621
-6.751509880216745e-05
-4.2713633936065354e-05
-1.5156450751507488e-05
-6.889295796140132e-06
-4.133577477684346e-06
-1.377859159228559e-06
-1.240073243305171e-05
-1.7912169069963278e-05
-2.6179324025330647e-05
-1.240073243305171e-05
-9.64501411459592e-06
-1.5156450751507488e-05
9.64501411459459e-06
9.64501411459459e-06
-6.889295796140132e-06
-3.169076066224221e-05
-5.3736507209888505e-05
-5.6492225528344285e-05
-4.8225070572976926e-05
-5.9247943846800084e-05
1.7912169069961946e-05
6.475938048371032e-05
8.129369039444505e-05
0.00010609515526054714
9.782800030517979e-05
8.129369039444505e-05
7.578225375753347e-05
0.00011160659189745871
0.0001694766765850302
0.00017774383154039756
0.0001832552681773092
0.00020530101472495543
0.000210812451361867
0.00026041538109407124
0.00027143825436789435
0.00019978957808804387
0.00016396523994811866
0.00021632388799877858
0.00024112535286488067
0.0002493925078202481
0.0002190796063172344
0.00022459104295414594
0.0002190796063172344
0.00019427814145113231
0.0001556980849927513
7.02708171206219e-05
-1.5156450751507488e-05
6.475938048371032e-05
0.00014191949340047234
0.0001253851834897376
9.507228198672396e-05
5.373650720988717e-05
3.9957915617608246e-05
2.8935042343785094e-05
-1.7912169069963278e-05
-5.3736507209888505e-05
-4.5469352254521147e-05
-5.9247943846800084e-05
-5.3736507209888505e-05
-6.475938048371164e-05
-7.85379720759906e-05
-5.098078889143272e-05
-4.5469352254521147e-05
-5.3736507209888505e-05
-5.9247943846800084e-05
-7.027081712062322e-05
-4.8225070572976926e-05
-4.8225070572976926e-05
-7.85379720759906e-05
-0.00013089662012665053
-9.507228198672531e-05
-4.2713633936065354e-05
-5.6492225528344285e-05
-7.027081712062322e-05
-5.9247943846800084e-05
-3.995791561760957e-05
-3.995791561760957e-05
-6.751509880216745e-05
-8.129369039444639e-05
-6.200366216525588e-05
-5.9247943846800084e-05
-5.3736507209888505e-05
-5.098078889143272e-05
-5.098078889143272e-05
-3.169076066224221e-05
-2.342360570687485e-05
-5.3736507209888505e-05
-6.475938048371164e-05
-7.027081712062322e-05
-6.475938048371164e-05
-3.4446478980697995e-05
-4.5469352254521147e-05
-6.200366216525588e-05
-5.6492225528344285e-05
-5.9247943846800084e-05
-9.231656366826955e-05
-7.302653543907902e-05
-1.377859159228559e-06
-3.720219729915378e-05
-4.8225070572976926e-05
-1.377859159228559e-06
-1.377859159228559e-06
-3.4446478980697995e-05
-6.200366216525588e-05
-3.995791561760957e-05
-3.169076066224221e-05
-1.7912169069963278e-05
-1.7912169069963278e-05
-2.066788738841907e-05
-9.64501411459592e-06
-4.133577477684346e-06
-6.889295796140132e-06
-1.240073243305171e-05
-9.64501411459592e-06
1.2400732433050376e-05
2.6179324025329308e-05
4.133577477683014e-06
-9.64501411459592e-06
-4.5469352254521147e-05
-8.680512703135793e-05
-6.889295796140132e-06
6.751509880216611e-05
4.271363393606403e-05
3.169076066224089e-05
3.169076066224089e-05
9.64501411459459e-06
-1.377859159228559e-06
-3.169076066224221e-05
-7.57822537575348e-05
-7.302653543907902e-05
-5.3736507209888505e-05
-8.129369039444639e-05
-8.680512703135793e-05
-8.129369039444639e-05
-9.231656366826955e-05
-0.00013089662012665053
-0.00012814090180819475
-9.78280003051811e-05
-6.751509880216745e-05
-6.751509880216745e-05
-6.200366216525588e-05
-7.85379720759906e-05
-0.0001584538033112084
-0.00011160659189746003
3.9957915617608246e-05
0.000172232394903486
0.00029072828259708476
0.0004670942549782553
0.0007812461432822147
0.0011505123979552907
0.0013709698634317533
0.0012607411306935217
0.0008694291294728002
0.0003182854657816428
-0.00012538518348973897
-0.0003320640573739229
-0.00035410980392156926
-0.0002962397192339978
-0.00024388107118333775
-0.00019703385976958942
-0.00017498811322194308
-0.00016396523994811996
-0.0001612095216296642
-0.00016672095826657574
-0.00018876670481422206
-0.0001997895780880452
-0.00016947667658503157
-0.00018876670481422206
-0.00015294236667429682
-0.00011160659189746003
-8.956084534981374e-05
-6.200366216525588e-05
-8.129369039444639e-05
-0.00012814090180819475
-0.00017498811322194308
-0.0001997895780880452
-0.00018325526817731047
-0.00012538518348973897
-0.00011436231021591582
-0.0001391637750820179
-0.0001584538033112084
-0.0001584538033112084
-0.00011160659189746003
-9.231656366826955e-05
-8.956084534981374e-05
-8.956084534981374e-05
-0.00011436231021591582
-0.00010885087357900426
-8.129369039444639e-05
-9.231656366826955e-05
-0.00010058371862363688
-3.995791561760957e-05
-4.133577477684346e-06
-1.377859159228559e-06
-1.7912169069963278e-05
-4.8225070572976926e-05
-1.240073243305171e-05
2.3423605706873515e-05
-1.7912169069963278e-05
6.200366216525454e-05
0.00013089662012664922
0.00013916377508201656
0.00014467521171892812
0.00014467521171892812
0.00013365233844510492
0.00013089662012664922
0.00013365233844510492
0.00015845380331120705
0.00015294236667429551
0.00011711802853437029
0.00011160659189745871
0.00010885087357900291
8.404940871290084e-05
6.751509880216611e-05
3.9957915617608246e-05
-6.889295796140132e-06
-2.342360570687485e-05
-2.342360570687485e-05
-4.2713633936065354e-05
-6.200366216525588e-05
-8.680512703135793e-05
-0.00011436231021591582
-0.00013089662012665053
-0.00013089662012665053
-0.00010885087357900426
-0.0001198737468528274
-0.00013089662012665053
-0.00012814090180819475
-0.0001198737468528274
-0.00012814090180819475
-0.00012814090180819475
-0.0001171180285343716
-0.0001364080567635621
-0.00014467521171892948
-0.00014191949340047367
-0.000150186648355841
-0.000150186648355841
-0.00014467521171892948
-0.0001364080567635621
-0.00014191949340047367
-0.000150186648355841
-0.000150186648355841
-0.0001584538033112084
-0.00014467521171892948
-0.00012814090180819475
-0.0001336523384451063
-0.00015294236667429682
-0.0001364080567635621
-0.0001171180285343716
-0.0001364080567635621
-0.00016672095826657574
-0.00016396523994811996
-0.00014743093003738526
-0.00015569808499275262
-0.00014191949340047367
-0.0001171180285343716
-0.0001171180285343716
-0.00010609515526054846
-9.507228198672531e-05
-0.00010333943694209268
-0.0001171180285343716
-0.0001226294651712832
-0.0001198737468528274
-0.00010885087357900426
-0.00010609515526054846
-0.00012538518348973897
-0.00014743093003738526
-0.0001612095216296642
-0.0001336523384451063
-0.00010609515526054846
-0.00010058371862363688
-0.00010058371862363688
-0.00010333943694209268
-9.507228198672531e-05
-0.00010058371862363688
-0.00010609515526054846
-0.00010885087357900426
-0.00011436231021591582
-0.0001171180285343716
-0.00010609515526054846
-0.00011160659189746003
-0.00011160659189746003
-9.507228198672531e-05
-8.129369039444639e-05
-7.85379720759906e-05
-8.129369039444639e-05
-8.404940871290214e-05
-9.507228198672531e-05
-8.956084534981374e-05
-6.751509880216745e-05
-5.9247943846800084e-05
-7.027081712062322e-05
-7.85379720759906e-05
-6.751509880216745e-05
-6.200366216525588e-05
-6.475938048371164e-05
-7.302653543907902e-05
-7.302653543907902e-05
-6.751509880216745e-05
-7.302653543907902e-05
-7.57822537575348e-05
-9.507228198672531e-05
-0.00013089662012665053
-0.0001336523384451063
-0.00012814090180819475
-0.0001226294651712832
-0.00011436231021591582
-0.00013089662012665053
-0.00016396523994811996
-0.00015569808499275262
-0.00012538518348973897
-0.00013089662012665053
-0.00014467521171892948
-0.00015569808499275262
-0.00016672095826657574
-0.0001584538033112084
-0.0001391637750820179
-0.00010609515526054846
-4.5469352254521147e-05
3.9957915617608246e-05
0.0001253851834897376
0.0005194529030289152
0.0008694291294728002
0.001125710933089188
0.0011174437781338207
0.0008308490730144192
0.0003982012970168605
-3.995791561760957e-05
-0.0003127740291447324
-0.0003899341420614945
-0.0003651326771953924
-0.00032379690241855563
-0.0002989954375524536
-0.00025765966277561676
-0.0002190796063172357
-0.0002080567330434125
-0.0002218353246356915
-0.0002218353246356915
-0.0002080567330434125
-0.00017223239490348733
-0.00015569808499275262
-0.00017223239490348733
-0.00018876670481422206
-0.00019152242313267784
-0.00017498811322194308
-0.00017223239490348733
-0.00016947667658503157
-0.0001777438315403989
-0.00016396523994811996
-0.00014467521171892948
-0.00013089662012665053
-0.0001336523384451063
-0.00014191949340047367
-0.0001584538033112084
-0.0001612095216296642
-0.00014467521171892948
-0.00013089662012665053
-0.0001198737468528274
-0.0001226294651712832
-0.0001364080567635621
-0.00012814090180819475
-0.00010885087357900426
-0.0001226294651712832
-0.0001226294651712832
-9.231656366826955e-05
-7.85379720759906e-05
-6.475938048371164e-05
-5.6492225528344285e-05
-3.720219729915378e-05
-2.8935042343786426e-05
-1.7912169069963278e-05
-6.889295796140132e-06
4.133577477683014e-06
1.7912169069961946e-05
2.6179324025329308e-05
5.098078889143139e-05
6.751509880216611e-05
6.475938048371032e-05
7.578225375753347e-05
8.129369039444505e-05
8.956084534981241e-05
9.23165636682682e-05
0.00010058371862363556
8.68051270313566e-05
7.578225375753347e-05
5.9247943846798756e-05
3.169076066224089e-05
6.8892957961388014e-06
-2.066788738841907e-05
-3.720219729915378e-05
-4.8225070572976926e-05
-5.6492225528344285e-05
-6.200366216525588e-05
-7.85379720759906e-05
-0.00011436231021591582
-0.0001171180285343716
-0.00012814090180819475
-0.0001364080567635621
-0.0001584538033112084
-0.0001777438315403989
-0.00016947667658503157
-0.0001584538033112084
-0.0001612095216296642
-0.0001584538033112084
-0.0001584538033112084
-0.00016396523994811996
-0.00016672095826657574
-0.00018601098649576628
-0.00018325526817731047
-0.00017498811322194308
-0.00016947667658503157
-0.00016947667658503157
-0.00018876670481422206
-0.00018601098649576628
-0.00016947667658503157
-0.00017498811322194308
-0.00016672095826657574
-0.00015569808499275262
-0.00016947667658503157
-0.00017498811322194308
-0.00017498811322194308
-0.00018049954985885472
-0.00017223239490348733
-0.00017223239490348733
-0.00018325526817731047
-0.00018049954985885472
-0.00017223239490348733
-0.0001336523384451063
-0.0001336523384451063
-0.00015569808499275262
-0.000150186648355841
-0.00014743093003738526
-0.0001336523384451063
-0.00013089662012665053
-0.00012538518348973897
-0.00013089662012665053
-0.0001364080567635621
-0.00010333943694209268
-0.00010609515526054846
-0.0001171180285343716
-0.0001198737468528274
-0.0001171180285343716
-0.00011436231021591582
-9.507228198672531e-05
-0.00011160659189746003
-0.00012538518348973897
-0.0001364080567635621
-0.00013089662012665053
-0.00011160659189746003
-0.00010609515526054846
-0.00011436231021591582
-0.00012814090180819475
-0.0001171180285343716
-0.00011436231021591582
-0.0001226294651712832
-0.00013089662012665053
-9.507228198672531e-05
-7.027081712062322e-05
-5.3736507209888505e-05
-7.302653543907902e-05
-0.0001336523384451063
-0.00010885087357900426
-6.475938048371164e-05
-5.3736507209888505e-05
-5.3736507209888505e-05
-6.200366216525588e-05
-7.027081712062322e-05
-6.475938048371164e-05
-6.200366216525588e-05
-7.85379720759906e-05
-8.680512703135793e-05
-7.85379720759906e-05
-7.027081712062322e-05
-9.231656366826955e-05
-0.0001336523384451063
-0.00014191949340047367
-0.00014191949340047367
-0.00014467521171892948
-0.00013089662012665053
-0.00012538518348973897
-0.00015569808499275262
-0.00018049954985885472
-0.00016947667658503157
-0.0001777438315403989
-0.00016947667658503157
-0.00017498811322194308
-0.00020530101472495681
-0.0002108124513618684
-0.00017498811322194308
-0.00014467521171892948
-0.00010609515526054846
-3.4446478980697995e-05
5.373650720988717e-05
0.00018876670481422076
0.00041749132524605104
0.0007316432135500107
0.0010127264820325008
0.0010540622568093376
0.00081707048142214
0.0004367813534752416
1.2400732433050376e-05
-0.0003045068741893651
-0.000447804226749066
-0.000447804226749066
-0.00036788839551384826
-0.00030175115587090934
-0.00025765966277561676
-0.00024388107118333775
-0.0002218353246356915
-0.0002080567330434125
-0.0002108124513618684
-0.00023010247959105888
-0.00023561391622797047
-0.0002190796063172357
-0.0002080567330434125
-0.00019427814145113364
-0.00019703385976958942
-0.00018325526817731047
-0.00016947667658503157
-0.0001612095216296642
-0.00016947667658503157
-0.00017223239490348733
-0.00018876670481422206
-0.00017498811322194308
-0.000150186648355841
-0.00016672095826657574
-0.00018049954985885472
-0.0001777438315403989
-0.00016672095826657574
-0.00014743093003738526
-0.00016672095826657574
-0.000150186648355841
-0.0001336523384451063
-0.0001171180285343716
-0.00011436231021591582
-0.00012814090180819475
-0.00012538518348973897
-0.00011160659189746003
-8.680512703135793e-05
-8.680512703135793e-05
-9.507228198672531e-05
-6.751509880216745e-05
-5.9247943846800084e-05
-6.475938048371164e-05
-3.169076066224221e-05
1.3778591592272275e-06
3.169076066224089e-05
4.271363393606403e-05
4.271363393606403e-05
7.02708171206219e-05
0.00010058371862363556
9.23165636682682e-05
9.507228198672396e-05
8.129369039444505e-05
8.129369039444505e-05
8.129369039444505e-05
8.956084534981241e-05
7.578225375753347e-05
4.82250705729756e-05
1.2400732433050376e-05
-2.066788738841907e-05
-3.720219729915378e-05
-6.475938048371164e-05
-8.129369039444639e-05
-7.302653543907902e-05
-7.302653543907902e-05
-7.85379720759906e-05
-0.00010333943694209268
-0.00012538518348973897
-0.00014467521171892948
-0.00014743093003738526
-0.000150186648355841
-0.0001777438315403989
-0.0002218353246356915
-0.00018876670481422206
-0.0001391637750820179
-0.00014743093003738526
-0.00017223239490348733
-0.00017498811322194308
-0.00018049954985885472
-0.00017498811322194308
-0.0001584538033112084
-0.00016672095826657574
-0.00018049954985885472
-0.00016947667658503157
-0.00015569808499275262
-0.0001612095216296642
-0.00018049954985885472
-0.00020254529640650095
-0.00019152242313267784
-0.00017223239490348733
-0.00017498811322194308
-0.00020254529640650095
-0.00019427814145113364
-0.0001584538033112084
-0.00017498811322194308
-0.00016672095826657574
-0.00017498811322194308
-0.00019703385976958942
-0.00019703385976958942
-0.00016672095826657574
-0.00014467521171892948
-0.00012814090180819475
-0.00014467521171892948
-0.0001584538033112084
-0.00015294236667429682
-0.0001364080567635621
-0.00014191949340047367
-0.00014743093003738526
-0.0001584538033112084
-0.00015569808499275262
-0.0001171180285343716
-0.00011160659189746003
-0.0001198737468528274
-0.0001171180285343716
-0.0001364080567635621
-0.00014467521171892948
-0.0001198737468528274
-0.00011160659189746003
-0.00012538518348973897
-0.0001198737468528274
-0.00010885087357900426
-0.00010609515526054846
-0.00010333943694209268
-0.00011160659189746003
-0.00013089662012665053
-0.00012814090180819475
-0.00011436231021591582
-0.00012814090180819475
-0.00014743093003738526
-0.00015569808499275262
-0.00011160659189746003
-7.302653543907902e-05
-7.302653543907902e-05
-0.00010333943694209268
-0.00011436231021591582
-0.00010333943694209268
-8.129369039444639e-05
-8.404940871290214e-05
-6.751509880216745e-05
-6.475938048371164e-05
-7.302653543907902e-05
-6.200366216525588e-05
-6.475938048371164e-05
-7.57822537575348e-05
-9.78280003051811e-05
-0.00010333943694209268
-0.00011436231021591582
-0.00011436231021591582
-0.0001336523384451063
-0.0001364080567635621
-0.0001336523384451063
-0.00017223239490348733
-0.00017498811322194308
-0.00019427814145113364
-0.0002080567330434125
-0.00018876670481422206
-0.0001777438315403989
-0.00016396523994811996
-0.00014467521171892948
-0.0001391637750820179
-0.00012814090180819475
-0.0001171180285343716
-8.956084534981374e-05
-7.57822537575348e-05
-4.133577477684346e-06
0.00013640805676356078
0.0003375754940108332
0.0006599945372701603
0.0010347722285801472
0.0012634968490119777
0.001178069581139848
0.0008280933546959632
0.0003293083390554659
-0.00012814090180819475
-0.000370644113832304
-0.0004257584802014197
-0.00037339983215075977
-0.00030726259250782084
-0.00025765966277561676
-0.00023010247959105888
-0.00022459104295414727
-0.00022734676127260308
-0.00022459104295414727
-0.0002190796063172357
-0.0002190796063172357
-0.0002080567330434125
-0.0002108124513618684
-0.00019152242313267784
-0.0001997895780880452
-0.00021632388799877996
-0.0002080567330434125
-0.00020530101472495681
-0.00019703385976958942
-0.00018049954985885472
-0.00017223239490348733
-0.00017498811322194308
-0.00016672095826657574
-0.00016947667658503157
-0.00017223239490348733
-0.0001777438315403989
-0.00019427814145113364
-0.00018601098649576628
-0.00016396523994811996
-0.00014743093003738526
-0.00014467521171892948
-0.0001584538033112084
-0.0001612095216296642
-0.00012814090180819475
-0.00010333943694209268
-0.00010885087357900426
-0.00010333943694209268
-9.507228198672531e-05
-7.85379720759906e-05
-6.200366216525588e-05
-5.3736507209888505e-05
-4.2713633936065354e-05
-2.342360570687485e-05
6.8892957961388014e-06
1.2400732433050376e-05
1.5156450751506162e-05
3.720219729915245e-05
7.578225375753347e-05
0.00011160659189745871
0.00012262946517128183
0.00010333943694209132
9.23165636682682e-05
8.68051270313566e-05
7.578225375753347e-05
8.956084534981241e-05
0.00011711802853437029
0.00010609515526054714
7.578225375753347e-05
7.02708171206219e-05
5.9247943846798756e-05
2.3423605706873515e-05
-1.5156450751507488e-05
-3.995791561760957e-05
-5.3736507209888505e-05
-8.129369039444639e-05
-0.00010058371862363688
-0.00012814090180819475
-0.0001364080567635621
-0.0001364080567635621
-0.00016396523994811996
-0.00019427814145113364
-0.00018876670481422206
-0.00016672095826657574
-0.00014191949340047367
-0.00015294236667429682
-0.00014743093003738526
-0.00014743093003738526
-0.00015294236667429682
-0.00014467521171892948
-0.000150186648355841
-0.00016672095826657574
-0.00017223239490348733
-0.00016947667658503157
-0.00017498811322194308
-0.00017498811322194308
-0.00015569808499275262
-0.00014191949340047367
-0.0001391637750820179
-0.0001612095216296642
-0.00017223239490348733
-0.00014191949340047367
-0.00012814090180819475
-0.0001612095216296642
-0.00018325526817731047
-0.00016947667658503157
-0.00016396523994811996
-0.0001584538033112084
-0.0001612095216296642
-0.000150186648355841
-0.0001364080567635621
-0.0001364080567635621
-0.0001336523384451063
-0.00014743093003738526
-0.0001612095216296642
-0.0001336523384451063
-0.00010885087357900426
-0.00010333943694209268
-0.0001198737468528274
-0.00015294236667429682
-0.00016947667658503157
-0.000150186648355841
-0.0001226294651712832
-0.00010609515526054846
-0.0001171180285343716
-0.00010885087357900426
-0.00010333943694209268
-0.00010609515526054846
-9.78280003051811e-05
-0.00011160659189746003
-0.00012538518348973897
-0.0001198737468528274
-9.231656366826955e-05
-8.680512703135793e-05
-0.00010609515526054846
-0.0001226294651712832
-0.00010609515526054846
-8.956084534981374e-05
-8.404940871290214e-05
-9.78280003051811e-05
-0.00011160659189746003
-0.00010333943694209268
-8.129369039444639e-05
-7.57822537575348e-05
-8.956084534981374e-05
-0.00011436231021591582
-8.680512703135793e-05
-6.751509880216745e-05
-4.8225070572976926e-05
-2.8935042343786426e-05
-4.8225070572976926e-05
-3.995791561760957e-05
-4.2713633936065354e-05
-6.200366216525588e-05
-6.751509880216745e-05
-3.720219729915378e-05
-4.5469352254521147e-05
-6.475938048371164e-05
-7.302653543907902e-05
-0.00010609515526054846
-0.0001391637750820179
-0.00016672095826657574
-0.0001391637750820179
-0.00014191949340047367
-0.00014191949340047367
-0.00012814090180819475
-0.00012538518348973897
-0.00013089662012665053
-0.00012814090180819475
-0.0001171180285343716
-0.00010609515526054846
-0.00011160659189746003
-0.0001336523384451063
-0.0001364080567635621
-9.507228198672531e-05
3.444647898069667e-05
0.000172232394903486
0.0004009570153353164
0.0007288874952315547
0.001125710933089188
0.0013819927367055766
0.001285542595559624
0.0009135206225680924
0.000365132677195391
-0.00011160659189746003
-0.00036237695887693665
-0.0004147356069275966
-0.0003513540856031135
-0.00027970540932326305
-0.0002218353246356915
-0.00020254529640650095
-0.00018876670481422206
-0.00020254529640650095
-0.0002080567330434125
-0.0002108124513618684
-0.00019703385976958942
-0.00022459104295414727
-0.00019152242313267784
-0.00016947667658503157
-0.0001997895780880452
-0.0001997895780880452
-0.00016396523994811996
-0.00016396523994811996
-0.00017223239490348733
-0.00016396523994811996
-0.0001584538033112084
-0.00016947667658503157
-0.00015569808499275262
-0.0001198737468528274
-0.00010333943694209268
-0.00011436231021591582
-0.00014191949340047367
-0.00017223239490348733
-0.00014743093003738526
-0.00014467521171892948
-0.00014191949340047367
-0.00013089662012665053
-0.0001336523384451063
-0.00011436231021591582
-0.00010058371862363688
-0.00011160659189746003
-7.57822537575348e-05
-3.995791561760957e-05
-6.200366216525588e-05
-6.200366216525588e-05
-3.720219729915378e-05
-1.5156450751507488e-05
1.3778591592272275e-06
2.066788738841773e-05
3.9957915617608246e-05
7.578225375753347e-05
0.00011711802853437029
0.00010609515526054714
8.404940871290084e-05
0.00011436231021591448
0.00012262946517128183
0.00013640805676356078
0.00013916377508201656
0.00011711802853437029
0.00012262946517128183
0.0001253851834897376
0.00011987374685282605
8.404940871290084e-05
7.02708171206219e-05
6.751509880216611e-05
4.546935225451981e-05
1.5156450751506162e-05
-1.240073243305171e-05
-5.098078889143272e-05
-7.57822537575348e-05
-7.027081712062322e-05
-8.129369039444639e-05
-8.956084534981374e-05
-9.78280003051811e-05
-0.00013089662012665053
-0.00015569808499275262
-0.0001391637750820179
-0.00013089662012665053
-0.0001171180285343716
-0.00011436231021591582
-0.0001171180285343716
-0.00013089662012665053
-0.0001391637750820179
-0.00014467521171892948
-0.00015294236667429682
-0.00012814090180819475
-0.00012538518348973897
-0.0001336523384451063
-0.00012814090180819475
-0.00012814090180819475
-0.00012538518348973897
-0.00012538518348973897
-0.00013089662012665053
-0.00014191949340047367
-0.000150186648355841
-0.00012538518348973897
-0.00013089662012665053
-0.00014467521171892948
-0.00015569808499275262
-0.00014743093003738526
-0.0001226294651712832
-0.0001226294651712832
-0.00011436231021591582
-0.00012814090180819475
-0.00014467521171892948
-0.00014191949340047367
-0.0001198737468528274
-0.00010333943694209268
-0.00010885087357900426
-0.00011436231021591582
-0.00010885087357900426
-0.00010609515526054846
-9.231656366826955e-05
-8.956084534981374e-05
-9.231656366826955e-05
-9.507228198672531e-05
-0.00011160659189746003
-9.78280003051811e-05
-9.78280003051811e-05
-0.00011160659189746003
-0.00010333943694209268
-8.956084534981374e-05
-7.027081712062322e-05
-4.8225070572976926e-05
-7.302653543907902e-05
-0.00010333943694209268
-9.78280003051811e-05
-9.507228198672531e-05
-8.680512703135793e-05
-0.0001226294651712832
-0.0001171180285343716
-9.231656366826955e-05
-6.751509880216745e-05
-5.9247943846800084e-05
-7.027081712062322e-05
-6.200366216525588e-05
-6.475938048371164e-05
-7.302653543907902e-05
-8.129369039444639e-05
-8.129369039444639e-05
-8.129369039444639e-05
-5.6492225528344285e-05
-2.6179324025330647e-05
-2.342360570687485e-05
-4.2713633936065354e-05
-2.6179324025330647e-05
-2.6179324025330647e-05
-4.8225070572976926e-05
-5.3736507209888505e-05
-5.098078889143272e-05
-5.3736507209888505e-05
-8.129369039444639e-05
-0.00011436231021591582
-0.00016947667658503157
-0.0001336523384451063
-9.231656366826955e-05
-0.00010609515526054846
-0.0001198737468528274
-0.0001171180285343716
-0.0001364080567635621
-0.00014191949340047367
-0.00014467521171892948
-9.78280003051811e-05
-9.507228198672531e-05
-0.0001171180285343716
-0.0001171180285343716
-0.00012538518348973897
-8.129369039444639e-05
1.3778591592272275e-06
8.129369039444505e-05
0.0001556980849927513
0.0002879725642786291
0.0005745672693980309
0.0009961921721217662
0.001318611215381093
0.001285542595559624
0.000960367833981841
0.0004863842832074457
2.066788738841773e-05
-0.00026592681773098404
-0.00037891126878767127
-0.00037339983215075977
-0.0003155297474631883
-0.00027143825436789566
-0.0002218353246356915
-0.0001777438315403989
-0.00016396523994811996
-0.00016396523994811996
-0.00016672095826657574
-0.00015294236667429682
-0.00023010247959105888
-0.00028797256427863044
-0.00023561391622797047
-0.00014743093003738526
-0.00012814090180819475
-0.00014743093003738526
-0.00016396523994811996
-0.0001612095216296642
-0.00014467521171892948
-0.00014467521171892948
-0.0001364080567635621
-0.00014467521171892948
-0.00014467521171892948
-0.00013089662012665053
-0.0001336523384451063
-0.00014743093003738526
-0.00014191949340047367
-0.0001198737468528274
-9.78280003051811e-05
-9.507228198672531e-05
-8.956084534981374e-05
-0.00012538518348973897
-0.00012814090180819475
-8.404940871290214e-05
-8.129369039444639e-05
-8.956084534981374e-05
-8.404940871290214e-05
-7.302653543907902e-05
-3.720219729915378e-05
-1.240073243305171e-05
-4.133577477684346e-06
1.7912169069961946e-05
4.82250705729756e-05
4.546935225451981e-05
3.169076066224089e-05
-6.889295796140132e-06
9.782800030517979e-05
0.00015018664835583973
0.00014467521171892812
0.00013916377508201656
0.00016396523994811866
0.0001694766765850302
0.00013916377508201656
0.00010609515526054714
7.853797207598924e-05
5.649222552834297e-05
1.7912169069961946e-05
9.64501411459459e-06
4.271363393606403e-05
5.098078889143139e-05
2.6179324025329308e-05
-1.240073243305171e-05
-5.098078889143272e-05
-7.027081712062322e-05
-7.302653543907902e-05
-8.680512703135793e-05
-8.956084534981374e-05
-0.00011160659189746003
-0.0001336523384451063
-0.0001336523384451063
-0.00012814090180819475
-0.0001198737468528274
-0.000150186648355841
-0.00018049954985885472
-0.00017498811322194308
-0.00023010247959105888
-0.00023010247959105888
-0.0001364080567635621
-0.0001364080567635621
-0.00015569808499275262
-0.00014191949340047367
-0.00015294236667429682
-0.00014191949340047367
-0.00012538518348973897
-0.00012814090180819475
-0.00012814090180819475
-0.00015569808499275262
-0.00018325526817731047
-0.0001584538033112084
-0.0001391637750820179
-0.00014467521171892948
-0.0001364080567635621
-0.00012538518348973897
-0.00014191949340047367
-0.00015569808499275262
-0.00018325526817731047
-0.0001997895780880452
-0.00018325526817731047
-0.00014191949340047367
-0.0001171180285343716
-9.507228198672531e-05
-0.00011160659189746003
-0.00011160659189746003
-0.0001777438315403989
-0.00019152242313267784
-8.956084534981374e-05
-6.475938048371164e-05
-6.475938048371164e-05
-8.680512703135793e-05
-0.00010333943694209268
-8.956084534981374e-05
-6.751509880216745e-05
-7.57822537575348e-05
-7.85379720759906e-05
-8.404940871290214e-05
-8.404940871290214e-05
-9.231656366826955e-05
-0.00010058371862363688
-0.00012538518348973897
-0.00012538518348973897
-0.00010609515526054846
-9.507228198672531e-05
-8.129369039444639e-05
-8.129369039444639e-05
-7.302653543907902e-05
-8.680512703135793e-05
-0.00010333943694209268
-0.00011160659189746003
-0.00010333943694209268
-7.027081712062322e-05
-3.995791561760957e-05
-2.6179324025330647e-05
-5.098078889143272e-05
-4.8225070572976926e-05
-3.995791561760957e-05
-5.3736507209888505e-05
-5.3736507209888505e-05
-9.507228198672531e-05
-0.00010058371862363688
-5.9247943846800084e-05
-5.9247943846800084e-05
-7.302653543907902e-05
-7.57822537575348e-05
-9.231656366826955e-05
-0.00010058371862363688
-0.00012538518348973897
-0.00011160659189746003
-0.00011436231021591582
-0.0001336523384451063
-0.0001364080567635621
-0.00014191949340047367
-0.0001391637750820179
-0.0001171180285343716
-0.0001171180285343716
-0.0001171180285343716
-0.00011160659189746003
-0.00013089662012665053
-0.0001391637750820179
-0.00011436231021591582
-5.3736507209888505e-05
3.444647898069667e-05
0.00016672095826657444
0.0003954455786984048
0.0006930631570916297
0.0009410778057526506
0.001048550820172426
0.0009300549324788276
0.0005663001144426635
0.00012262946517128183
-0.0002218353246356915
-0.00036788839551384826
-0.00037339983215075977
-0.00031828546578164407
-0.00027419397268635144
-0.0002604153810940725
-0.00023010247959105888
-0.00019152242313267784
-0.00016672095826657574
-0.00017498811322194308
-0.00020530101472495681
-0.0002190796063172357
-0.00019152242313267784
-0.00018876670481422206
-0.0001584538033112084
-0.00014467521171892948
-0.0001584538033112084
-0.00015294236667429682
-0.0001777438315403989
-0.00023561391622797047
-0.00019427814145113364
-0.0001336523384451063
-0.00010333943694209268
-0.00010885087357900426
-0.00014467521171892948
-0.00014191949340047367
-0.0001198737468528274
-0.00012538518348973897
-0.00012814090180819475
-0.00010885087357900426
-0.00010885087357900426
-0.0001171180285343716
-0.0001336523384451063
-0.00014743093003738526
-0.00013089662012665053
-0.00011160659189746003
-0.00011160659189746003
-8.404940871290214e-05
-2.6179324025330647e-05
-1.240073243305171e-05
-1.7912169069963278e-05
-3.995791561760957e-05
-8.956084534981374e-05
-2.066788738841907e-05
5.373650720988717e-05
8.68051270313566e-05
8.404940871290084e-05
7.02708171206219e-05
9.507228198672396e-05
0.00011436231021591448
0.00012262946517128183
9.782800030517979e-05
7.02708171206219e-05
9.23165636682682e-05
0.00010609515526054714
9.23165636682682e-05
8.129369039444505e-05
8.404940871290084e-05
4.82250705729756e-05
1.5156450751506162e-05
1.2400732433050376e-05
-1.377859159228559e-06
-2.8935042343786426e-05
-5.6492225528344285e-05
-6.475938048371164e-05
-6.751509880216745e-05
-7.85379720759906e-05
-0.00010609515526054846
-0.00018601098649576628
-0.00018876670481422206
-9.231656366826955e-05
-5.098078889143272e-05
-0.00010058371862363688
-0.0001364080567635621
-0.00015294236667429682
-0.00015294236667429682
-0.0001364080567635621
-0.0001171180285343716
-0.0001171180285343716
-0.00012538518348973897
-0.0001336523384451063
-0.0001364080567635621
-0.0001391637750820179
-0.0001391637750820179
-0.00011160659189746003
-0.0001198737468528274
-0.00013089662012665053
-0.00014191949340047367
-0.00014191949340047367
-0.0001391637750820179
-0.00012538518348973897
-0.00012538518348973897
-0.00012814090180819475
-0.0001364080567635621
-0.00017223239490348733
-0.00021356816968032413
-0.00016672095826657574
-0.00013089662012665053
-0.0001364080567635621
-0.00012538518348973897
-0.00010058371862363688
-9.507228198672531e-05
-0.00010885087357900426
-0.00011436231021591582
-9.78280003051811e-05
-0.00010058371862363688
-0.00010333943694209268
-9.507228198672531e-05
-8.404940871290214e-05
-5.6492225528344285e-05
-5.9247943846800084e-05
-6.475938048371164e-05
-8.680512703135793e-05
-8.680512703135793e-05
-8.404940871290214e-05
-7.302653543907902e-05
-7.027081712062322e-05
-8.129369039444639e-05
-8.680512703135793e-05
-9.78280003051811e-05
-0.0001584538033112084
-0.00016672095826657574
-5.3736507209888505e-05
-3.720219729915378e-05
-5.098078889143272e-05
-6.475938048371164e-05
-5.9247943846800084e-05
-3.169076066224221e-05
-2.8935042343786426e-05
-2.6179324025330647e-05
-2.342360570687485e-05
-1.5156450751507488e-05
-2.066788738841907e-05
-4.5469352254521147e-05
-3.720219729915378e-05
-2.066788738841907e-05
1.3778591592272275e-06
6.8892957961388014e-06
-1.7912169069963278e-05
-3.4446478980697995e-05
-4.8225070572976926e-05
-3.4446478980697995e-05
-6.889295796140132e-06
-1.7912169069963278e-05
-8.129369039444639e-05
-0.00017223239490348733
-8.956084534981374e-05
-2.066788738841907e-05
-5.6492225528344285e-05
-9.231656366826955e-05
-0.00011160659189746003
-0.00010609515526054846
-8.956084534981374e-05
-8.129369039444639e-05
-9.78280003051811e-05
-0.00011160659189746003
-0.0001391637750820179
-0.000150186648355841
-0.00010885087357900426
-5.3736507209888505e-05
2.066788738841773e-05
8.956084534981241e-05
0.00020530101472495543
0.0004009570153353164
0.0007068417486839086
0.0012882983138780798
0.0011753138628213923
0.0008253376363775078
0.0003293083390554659
-0.00017498811322194308
-0.0003816669871061273
-0.0003430869306477461
-0.0002962397192339978
-0.00023836963454642628
-0.00019152242313267784
-0.00018876670481422206
-0.00017498811322194308
-0.00014191949340047367
-0.0001198737468528274
-0.00014467521171892948
-0.0001336523384451063
-0.00012538518348973897
-0.00012538518348973897
-0.00012814090180819475
-0.00013089662012665053
-0.000150186648355841
-0.0001364080567635621
-0.00011436231021591582
-0.0001171180285343716
-0.0001198737468528274
-0.0001198737468528274
-8.680512703135793e-05
-5.6492225528344285e-05
-5.9247943846800084e-05
-9.78280003051811e-05
-0.00017223239490348733
-0.0001391637750820179
-7.027081712062322e-05
-7.302653543907902e-05
-9.231656366826955e-05
-0.00010333943694209268
-8.129369039444639e-05
-7.302653543907902e-05
-6.475938048371164e-05
-4.2713633936065354e-05
-1.7912169069963278e-05
-2.066788738841907e-05
-2.6179324025330647e-05
-2.066788738841907e-05
-1.240073243305171e-05
4.133577477683014e-06
3.169076066224089e-05
5.649222552834297e-05
7.578225375753347e-05
9.782800030517979e-05
0.00010609515526054714
0.00011711802853437029
0.00011711802853437029
0.0001253851834897376
0.00014743093003738393
0.00013916377508201656
8.129369039444505e-05
0.00013640805676356078
0.00017774383154039756
0.00017774383154039756
0.0001970338597695881
0.0001832552681773092
0.00014467521171892812
0.00011987374685282605
8.956084534981241e-05
2.3423605706873515e-05
1.7912169069961946e-05
6.8892957961388014e-06
-4.133577477684346e-06
-1.377859159228559e-06
-5.098078889143272e-05
-7.302653543907902e-05
-7.302653543907902e-05
-7.027081712062322e-05
-5.9247943846800084e-05
-6.475938048371164e-05
-8.956084534981374e-05
-0.00011160659189746003
-8.404940871290214e-05
-7.027081712062322e-05
-9.78280003051811e-05
-0.0001171180285343716
-0.0001198737468528274
-0.00011160659189746003
-0.0001198737468528274
-0.00017498811322194308
-0.0001171180285343716
-7.57822537575348e-05
-7.85379720759906e-05
-0.00010609515526054846
-0.00010333943694209268
-9.231656366826955e-05
-8.956084534981374e-05
-8.129369039444639e-05
-6.200366216525588e-05
-6.475938048371164e-05
-8.404940871290214e-05
-0.00012814090180819475
-0.00012538518348973897
-8.404940871290214e-05
-5.6492225528344285e-05
-9.231656366826955e-05
-0.0001391637750820179
-0.00012538518348973897
-8.680512703135793e-05
-7.027081712062322e-05
-6.475938048371164e-05
-7.85379720759906e-05
-9.231656366826955e-05
-0.00011160659189746003
-0.00014467521171892948
-7.027081712062322e-05
-2.342360570687485e-05
-2.6179324025330647e-05
-3.995791561760957e-05
-2.6179324025330647e-05
-2.066788738841907e-05
-6.200366216525588e-05
-7.027081712062322e-05
-5.3736507209888505e-05
-3.720219729915378e-05
-3.720219729915378e-05
-4.8225070572976926e-05
-4.2713633936065354e-05
-4.2713633936065354e-05
-3.995791561760957e-05
-2.6179324025330647e-05
-2.066788738841907e-05
-1.7912169069963278e-05
-3.4446478980697995e-05
-9.64501411459592e-06
-1.7912169069963278e-05
-3.4446478980697995e-05
-4.133577477684346e-06
1.7912169069961946e-05
-2.066788738841907e-05
-0.00010333943694209268
-3.995791561760957e-05
1.7912169069961946e-05
2.3423605706873515e-05
3.444647898069667e-05
5.649222552834297e-05
5.9247943846798756e-05
3.444647898069667e-05
1.7912169069961946e-05
5.098078889143139e-05
2.8935042343785094e-05
-3.4446478980697995e-05
-6.200366216525588e-05
-3.169076066224221e-05
-2.066788738841907e-05
-3.4446478980697995e-05
-5.098078889143272e-05
-7.57822537575348e-05
-7.302653543907902e-05
-6.475938048371164e-05
-6.751509880216745e-05
-6.751509880216745e-05
-7.302653543907902e-05
-7.57822537575348e-05
-4.8225070572976926e-05
-7.027081712062322e-05
-7.302653543907902e-05
-5.3736507209888505e-05
-4.8225070572976926e-05
3.169076066224089e-05
0.0002686825360494386
0.0005277200579842825
0.0008611619745174325
0.001205626764324406
0.001423328511482413
0.0013158554970626377
0.0009162763408865484
0.0003844227054245816
-5.9247943846800084e-05
-0.0002686825360494398
-0.00029348400091554195
-0.0002604153810940725
-0.00020530101472495681
-0.0001612095216296642
-0.00011436231021591582
-0.00010885087357900426
-0.0001198737468528274
-0.00012814090180819475
-0.0001364080567635621
-0.00013089662012665053
-0.00014191949340047367
-0.0001336523384451063
-0.00014191949340047367
-0.0001198737468528274
-8.404940871290214e-05
-8.404940871290214e-05
-8.129369039444639e-05
-7.302653543907902e-05
-0.000150186648355841
-7.57822537575348e-05
-3.4446478980697995e-05
-5.3736507209888505e-05
-6.751509880216745e-05
-0.00010058371862363688
-0.00010333943694209268
-6.200366216525588e-05
-4.8225070572976926e-05
-4.5469352254521147e-05
-4.8225070572976926e-05
-4.2713633936065354e-05
-9.64501411459592e-06
-9.64501411459592e-06
-3.4446478980697995e-05
-3.4446478980697995e-05
-1.7912169069963278e-05
1.7912169069961946e-05
2.3423605706873515e-05
3.169076066224089e-05
4.271363393606403e-05
4.546935225451981e-05
7.30265354390777e-05
0.00010609515526054714
0.00011160659189745871
0.0001253851834897376
0.0001556980849927513
0.00017498811322194178
0.000172232394903486
0.00012814090180819342
0.0001832552681773092
0.00022459104295414594
0.00022734676127260172
0.00024112535286488067
0.0002493925078202481
0.00023285819790951333
0.00018601098649576498
0.00017498811322194178
0.00017498811322194178
0.00013916377508201656
0.00011711802853437029
8.68051270313566e-05
7.30265354390777e-05
4.82250705729756e-05
2.066788738841773e-05
2.6179324025329308e-05
2.6179324025329308e-05
-9.64501411459592e-06
-3.4446478980697995e-05
-2.6179324025330647e-05
-3.995791561760957e-05
-7.57822537575348e-05
-7.85379720759906e-05
-4.8225070572976926e-05
-4.8225070572976926e-05
-4.8225070572976926e-05
-4.8225070572976926e-05
-7.85379720759906e-05
-7.027081712062322e-05
-4.5469352254521147e-05
-6.200366216525588e-05
-0.0001391637750820179
-0.0001198737468528274
-3.995791561760957e-05
-5.3736507209888505e-05
-0.00010885087357900426
-9.507228198672531e-05
-7.302653543907902e-05
-5.3736507209888505e-05
-3.4446478980697995e-05
-5.3736507209888505e-05
-6.200366216525588e-05
-7.85379720759906e-05
-9.231656366826955e-05
-7.85379720759906e-05
-6.200366216525588e-05
-5.9247943846800084e-05
-5.9247943846800084e-05
-6.200366216525588e-05
-5.9247943846800084e-05
-6.200366216525588e-05
-4.8225070572976926e-05
-3.720219729915378e-05
-4.8225070572976926e-05
-7.302653543907902e-05
-7.027081712062322e-05
-4.8225070572976926e-05
-5.098078889143272e-05
-5.9247943846800084e-05
-3.995791561760957e-05
-3.4446478980697995e-05
-5.3736507209888505e-05
-2.6179324025330647e-05
-1.240073243305171e-05
-9.64501411459592e-06
-2.342360570687485e-05
-2.8935042343786426e-05
-9.78280003051811e-05
-0.00016672095826657574
-8.129369039444639e-05
-1.377859159228559e-06
6.8892957961388014e-06
4.133577477683014e-06
-6.889295796140132e-06
9.64501411459459e-06
6.8892957961388014e-06
-1.7912169069963278e-05
4.133577477683014e-06
2.3423605706873515e-05
1.2400732433050376e-05
1.3778591592272275e-06
4.133577477683014e-06
-4.133577477684346e-06
1.2400732433050376e-05
2.066788738841773e-05
9.64501411459459e-06
1.2400732433050376e-05
2.3423605706873515e-05
4.133577477683014e-06
1.3778591592272275e-06
1.3778591592272275e-06
1.7912169069961946e-05
-4.133577477684346e-06
-2.6179324025330647e-05
-5.098078889143272e-05
-8.680512703135793e-05
-7.57822537575348e-05
-6.475938048371164e-05
-7.85379720759906e-05
-8.956084534981374e-05
-7.302653543907902e-05
-9.231656366826955e-05
-8.956084534981374e-05
-0.0001171180285343716
-0.00011436231021591582
-3.720219729915378e-05
-2.342360570687485e-05
-2.6179324025330647e-05
-4.133577477684346e-06
5.373650720988717e-05
0.00014191949340047234
0.0002741939726863501
0.000547010086213473
0.000949344960708018
0.001324122652018005
0.001423328511482413
0.0011863367360952157
0.0007371546501869223
0.00020530101472495543
-0.00018325526817731047
-0.0003127740291447324
-0.0002852168459601746
-0.00025765966277561676
-0.00021356816968032413
-0.00017223239490348733
-0.00014467521171892948
-0.00014467521171892948
-0.00014743093003738526
-0.0001612095216296642
-0.00014743093003738526
-0.00013089662012665053
-0.00010058371862363688
-9.231656366826955e-05
-9.78280003051811e-05
-0.00010058371862363688
-0.00010609515526054846
-0.00010058371862363688
-9.78280003051811e-05
-0.00011160659189746003
-0.0001198737468528274
-0.00011436231021591582
-9.507228198672531e-05
-4.5469352254521147e-05
-4.2713633936065354e-05
-6.751509880216745e-05
-9.231656366826955e-05
-0.00011436231021591582
-0.00011160659189746003
-0.00014191949340047367
-0.0001171180285343716
-5.3736507209888505e-05
-4.2713633936065354e-05
-3.169076066224221e-05
-2.066788738841907e-05
-4.133577477684346e-06
-1.5156450751507488e-05
-9.64501411459592e-06
1.5156450751506162e-05
3.169076066224089e-05
2.6179324025329308e-05
1.5156450751506162e-05
3.720219729915245e-05
7.853797207598924e-05
0.00011987374685282605
0.0001556980849927513
0.00014743093003738393
0.00014191949340047234
0.00013089662012664922
0.00014743093003738393
0.000172232394903486
0.00019152242313267648
0.0001832552681773092
0.00017774383154039756
0.00018876670481422076
0.0001694766765850302
0.00014467521171892812
0.00013640805676356078
0.00014467521171892812
0.00011987374685282605
6.475938048371032e-05
2.8935042343785094e-05
-6.889295796140132e-06
-7.57822537575348e-05
-3.4446478980697995e-05
3.720219729915245e-05
4.271363393606403e-05
2.8935042343785094e-05
-2.066788738841907e-05
-7.302653543907902e-05
-0.00010885087357900426
-0.00012538518348973897
-0.0001171180285343716
-0.00010885087357900426
-8.680512703135793e-05
-8.404940871290214e-05
-8.129369039444639e-05
-9.231656366826955e-05
-0.00010058371862363688
-9.507228198672531e-05
-0.0001226294651712832
-0.00011160659189746003
-9.507228198672531e-05
-7.85379720759906e-05
-8.680512703135793e-05
-9.78280003051811e-05
-0.0001171180285343716
-0.00013089662012665053
-0.00010058371862363688
-7.302653543907902e-05
-8.404940871290214e-05
-8.956084534981374e-05
-9.78280003051811e-05
-0.0001198737468528274
-0.00011436231021591582
-0.00017498811322194308
-0.00014191949340047367
-7.302653543907902e-05
-6.751509880216745e-05
-7.302653543907902e-05
-9.507228198672531e-05
-9.507228198672531e-05
-7.85379720759906e-05
-8.404940871290214e-05
-8.680512703135793e-05
-5.098078889143272e-05
-5.9247943846800084e-05
-7.85379720759906e-05
-9.78280003051811e-05
-0.00010333943694209268
-4.8225070572976926e-05
-6.751509880216745e-05
-7.57822537575348e-05
-7.57822537575348e-05
-7.302653543907902e-05
-7.302653543907902e-05
-7.57822537575348e-05
-7.57822537575348e-05
-7.302653543907902e-05
-6.200366216525588e-05
-7.85379720759906e-05
-6.751509880216745e-05
-6.200366216525588e-05
-7.85379720759906e-05
-6.751509880216745e-05
-5.9247943846800084e-05
-5.9247943846800084e-05
-0.0001226294651712832
-0.00011160659189746003
-4.133577477684346e-06
2.066788738841773e-05
-4.133577477684346e-06
-3.995791561760957e-05
-4.8225070572976926e-05
-4.2713633936065354e-05
-3.995791561760957e-05
-4.8225070572976926e-05
-5.3736507209888505e-05
-4.5469352254521147e-05
-5.3736507209888505e-05
-2.6179324025330647e-05
-6.889295796140132e-06
-6.889295796140132e-06
6.8892957961388014e-06
-1.377859159228559e-06
-2.066788738841907e-05
-5.098078889143272e-05
-8.129369039444639e-05
-9.231656366826955e-05
-0.00010885087357900426
-9.78280003051811e-05
-0.00011436231021591582
-0.0001171180285343716
-6.751509880216745e-05
-7.027081712062322e-05
-8.404940871290214e-05
-0.00011436231021591582
-0.0001198737468528274
-0.00012538518348973897
-0.00013089662012665053
-0.0001198737468528274
-0.00010885087357900426
-7.85379720759906e-05
-5.098078889143272e-05
-1.7912169069963278e-05
8.404940871290084e-05
0.00020530101472495543
0.0003844227054245816
0.0006985745937285414
0.0010457951018539703
0.0012304282291905084
0.0010926423132677188
0.0007343989318684667
0.00029623971923399637
-0.0001198737468528274
-0.00037339983215075977
-0.0003513540856031135
-0.0002989954375524536
-0.0003293083390554673
-0.0002824611276417188
-0.00015294236667429682
-0.00014467521171892948
-0.00014191949340047367
-0.0001364080567635621
-0.0001391637750820179
-0.00015294236667429682
-0.000150186648355841
-0.0001391637750820179
-0.00012814090180819475
-0.00013089662012665053
-0.0001584538033112084
-0.000150186648355841
-0.0001226294651712832
-0.0001226294651712832
-0.0001171180285343716
-0.00010609515526054846
-0.00010885087357900426
-0.0001171180285343716
-0.00013089662012665053
-0.0001364080567635621
-0.00014467521171892948
-0.00010609515526054846
-9.78280003051811e-05
-9.78280003051811e-05
-9.507228198672531e-05
-7.302653543907902e-05
-5.6492225528344285e-05
-5.6492225528344285e-05
-6.475938048371164e-05
-7.85379720759906e-05
-7.85379720759906e-05
-5.6492225528344285e-05
-3.995791561760957e-05
-9.507228198672531e-05
-4.5469352254521147e-05
2.3423605706873515e-05
5.098078889143139e-05
7.578225375753347e-05
7.853797207598924e-05
6.475938048371032e-05
7.578225375753347e-05
0.00011711802853437029
0.00011711802853437029
0.00011987374685282605
0.00011987374685282605
0.00013640805676356078
0.00014467521171892812
0.00014467521171892812
0.00013089662012664922
0.00013365233844510492
0.00012814090180819342
8.68051270313566e-05
6.475938048371032e-05
6.475938048371032e-05
5.9247943846798756e-05
3.444647898069667e-05
6.8892957961388014e-06
-1.240073243305171e-05
-2.342360570687485e-05
-2.066788738841907e-05
-9.507228198672531e-05
-0.00011160659189746003
-0.00010885087357900426
-0.00010885087357900426
-0.0001171180285343716
-0.0001226294651712832
-0.00018876670481422206
-0.00022459104295414727
-0.0001198737468528274
-8.129369039444639e-05
-8.956084534981374e-05
-0.00010058371862363688
-0.00010885087357900426
-0.00011160659189746003
-9.507228198672531e-05
-0.00010333943694209268
-0.00011160659189746003
-0.00011436231021591582
-0.00013089662012665053
-0.00014743093003738526
-0.00013089662012665053
-0.0001198737468528274
-0.0001364080567635621
-0.00014743093003738526
-0.00014191949340047367
-0.00013089662012665053
-0.0001391637750820179
-0.0001391637750820179
-0.0001198737468528274
-0.00010058371862363688
-9.231656366826955e-05
-0.00010885087357900426
-0.00014467521171892948
-0.00016396523994811996
-0.0001336523384451063
-9.507228198672531e-05
-9.507228198672531e-05
-0.00010609515526054846
-9.507228198672531e-05
-7.85379720759906e-05
-7.027081712062322e-05
-9.78280003051811e-05
-0.00014743093003738526
-0.00016947667658503157
-0.00016396523994811996
-7.57822537575348e-05
-5.3736507209888505e-05
-6.751509880216745e-05
-7.57822537575348e-05
-5.6492225528344285e-05
-6.475938048371164e-05
-7.57822537575348e-05
-9.78280003051811e-05
-8.956084534981374e-05
-6.475938048371164e-05
-6.751509880216745e-05
-7.027081712062322e-05
-8.404940871290214e-05
-6.751509880216745e-05
-4.5469352254521147e-05
-6.200366216525588e-05
-6.751509880216745e-05
-5.3736507209888505e-05
-6.200366216525588e-05
-5.3736507209888505e-05
-4.5469352254521147e-05
-5.9247943846800084e-05
-4.5469352254521147e-05
-2.8935042343786426e-05
-2.066788738841907e-05
-1.240073243305171e-05
-6.889295796140132e-06
-3.4446478980697995e-05
-4.5469352254521147e-05
-6.751509880216745e-05
-6.200366216525588e-05
-3.995791561760957e-05
-4.2713633936065354e-05
-5.3736507209888505e-05
-0.00012538518348973897
-0.00014191949340047367
-7.302653543907902e-05
-7.302653543907902e-05
-8.129369039444639e-05
-6.751509880216745e-05
-9.78280003051811e-05
-0.00012538518348973897
-0.00011160659189746003
-0.00010058371862363688
-9.78280003051811e-05
-7.85379720759906e-05
-8.956084534981374e-05
-0.00010885087357900426
-0.00012538518348973897
-9.78280003051811e-05
-3.169076066224221e-05
3.9957915617608246e-05
0.00013089662012664922
0.0002879725642786291
0.0005938572976272215
0.0009576121156633854
0.001178069581139848
0.001103665186541542
0.0007757347066453035
0.00035135408560311223
-3.169076066224221e-05
-0.00026592681773098404
-0.0003485983672846577
-0.0003513540856031135
-0.0002962397192339978
-0.0002521482261387052
-0.00020530101472495681
-0.00016396523994811996
-0.00015569808499275262
-0.0001612095216296642
-0.00020254529640650095
-0.00024112535286488197
-0.00014467521171892948
-8.680512703135793e-05
-9.507228198672531e-05
-9.78280003051811e-05
-8.956084534981374e-05
-9.507228198672531e-05
-0.0001226294651712832
-0.00014191949340047367
-0.0001391637750820179
-0.00010333943694209268
-9.507228198672531e-05
-8.680512703135793e-05
-0.00012538518348973897
-0.00011160659189746003
-7.85379720759906e-05
-6.200366216525588e-05
-8.956084534981374e-05
-0.00010058371862363688
-9.507228198672531e-05
-8.404940871290214e-05
-4.8225070572976926e-05
-3.995791561760957e-05
-4.8225070572976926e-05
-5.3736507209888505e-05
-3.720219729915378e-05
-2.8935042343786426e-05
-1.5156450751507488e-05
-9.64501411459592e-06
1.3778591592272275e-06
1.3778591592272275e-06
-1.377859159228559e-06
-4.5469352254521147e-05
6.8892957961388014e-06
0.00011160659189745871
0.00014191949340047234
0.00016120952162966288
0.00016672095826657444
0.00018601098649576498
0.00017498811322194178
0.00017498811322194178
0.00015845380331120705
0.00013089662012664922
0.00014743093003738393
0.00015294236667429551
0.00014743093003738393
0.00014191949340047234
0.00014467521171892812
9.782800030517979e-05
4.546935225451981e-05
4.546935225451981e-05
4.546935225451981e-05
3.169076066224089e-05
-9.64501411459592e-06
-3.4446478980697995e-05
-3.995791561760957e-05
-4.8225070572976926e-05
-3.995791561760957e-05
-4.5469352254521147e-05
-7.302653543907902e-05
-8.680512703135793e-05
-7.85379720759906e-05
-0.00013089662012665053
-0.00016396523994811996
-9.507228198672531e-05
-8.956084534981374e-05
-9.78280003051811e-05
-8.956084534981374e-05
-7.85379720759906e-05
-7.85379720759906e-05
-9.231656366826955e-05
-8.404940871290214e-05
-8.404940871290214e-05
-8.956084534981374e-05
-9.78280003051811e-05
-9.507228198672531e-05
-9.78280003051811e-05
-9.507228198672531e-05
-9.507228198672531e-05
-0.00010333943694209268
-8.680512703135793e-05
-8.129369039444639e-05
-9.78280003051811e-05
-9.231656366826955e-05
-8.680512703135793e-05
-0.00010058371862363688
-0.00010609515526054846
-7.027081712062322e-05
-5.9247943846800084e-05
-9.231656366826955e-05
-9.507228198672531e-05
-9.507228198672531e-05
-0.00010609515526054846
-8.680512703135793e-05
-7.302653543907902e-05
-5.6492225528344285e-05
-8.404940871290214e-05
-0.00012538518348973897
-5.6492225528344285e-05
-2.8935042343786426e-05
-3.4446478980697995e-05
-1.240073243305171e-05
6.8892957961388014e-06
-1.7912169069963278e-05
-3.720219729915378e-05
-5.3736507209888505e-05
-5.3736507209888505e-05
-3.995791561760957e-05
-2.8935042343786426e-05
-2.8935042343786426e-05
-3.720219729915378e-05
-3.4446478980697995e-05
-1.5156450751507488e-05
-1.7912169069963278e-05
-1.240073243305171e-05
9.64501411459459e-06
4.133577477683014e-06
-1.7912169069963278e-05
-3.4446478980697995e-05
-2.6179324025330647e-05
-1.240073243305171e-05
4.133577477683014e-06
-4.133577477684346e-06
-1.5156450751507488e-05
-6.889295796140132e-06
9.64501411459459e-06
-9.64501411459592e-06
-3.169076066224221e-05
-1.5156450751507488e-05
6.8892957961388014e-06
1.7912169069961946e-05
2.6179324025329308e-05
2.8935042343785094e-05
2.3423605706873515e-05
6.8892957961388014e-06
-6.889295796140132e-06
-6.200366216525588e-05
-7.57822537575348e-05
-5.6492225528344285e-05
-4.5469352254521147e-05
-5.6492225528344285e-05
-7.57822537575348e-05
-0.0001364080567635621
-6.751509880216745e-05
-3.4446478980697995e-05
-2.066788738841907e-05
-3.720219729915378e-05
-5.6492225528344285e-05
-5.6492225528344285e-05
-3.169076066224221e-05
2.3423605706873515e-05
0.00013089662012664922
0.0002686825360494386
0.0004863842832074457
0.0008225819180590517
0.0011890924544136717
0.0013930156099793995
0.001257985412375066
0.0008528948195620654
0.0003375754940108332
-8.956084534981374e-05
-0.0003045068741893651
-0.00032379690241855563
-0.0002686825360494398
-0.0002218353246356915
-0.00018049954985885472
-0.00014191949340047367
-0.0001391637750820179
-0.0001364080567635621
-0.0001171180285343716
-0.00011436231021591582
-0.00013089662012665053
-0.0001391637750820179
-0.00012814090180819475
-0.00010609515526054846
-0.00011160659189746003
-0.00010885087357900426
-0.0001198737468528274
-0.0001171180285343716
-0.00010058371862363688
-8.129369039444639e-05
-8.404940871290214e-05
-0.00013089662012665053
-0.00013089662012665053
-9.78280003051811e-05
-7.85379720759906e-05
-7.027081712062322e-05
-7.027081712062322e-05
-7.027081712062322e-05
-5.9247943846800084e-05
-5.9247943846800084e-05
-7.85379720759906e-05
-8.129369039444639e-05
-5.6492225528344285e-05
-6.200366216525588e-05
-3.4446478980697995e-05
9.64501411459459e-06
-1.240073243305171e-05
-3.4446478980697995e-05
-2.342360570687485e-05
2.066788738841773e-05
5.373650720988717e-05
5.098078889143139e-05
3.9957915617608246e-05
6.751509880216611e-05
7.853797207598924e-05
0.00011987374685282605
0.00015018664835583973
0.00016672095826657444
0.00017774383154039756
0.00018876670481422076
0.00019978957808804387
0.00018876670481422076
0.00019152242313267648
0.00019427814145113231
0.00020254529640649968
0.00016672095826657444
0.00014191949340047234
0.00013089662012664922
0.00011711802853437029
9.782800030517979e-05
8.68051270313566e-05
6.751509880216611e-05
4.82250705729756e-05
1.2400732433050376e-05
4.133577477683014e-06
-1.240073243305171e-05
-2.066788738841907e-05
-4.2713633936065354e-05
-6.475938048371164e-05
-8.129369039444639e-05
-7.57822537575348e-05
-8.129369039444639e-05
-7.302653543907902e-05
-6.200366216525588e-05
-7.302653543907902e-05
-8.404940871290214e-05
-8.680512703135793e-05
-9.78280003051811e-05
-9.507228198672531e-05
-0.00010333943694209268
-8.129369039444639e-05
-6.751509880216745e-05
-6.200366216525588e-05
-6.751509880216745e-05
-6.751509880216745e-05
-6.200366216525588e-05
-6.200366216525588e-05
-7.302653543907902e-05
-9.231656366826955e-05
-7.57822537575348e-05
-5.098078889143272e-05
-5.9247943846800084e-05
-6.200366216525588e-05
-8.404940871290214e-05
-9.507228198672531e-05
-0.00010333943694209268
-8.129369039444639e-05
-7.57822537575348e-05
-8.956084534981374e-05
-8.956084534981374e-05
-7.302653543907902e-05
-7.85379720759906e-05
-6.751509880216745e-05
-5.3736507209888505e-05
-7.027081712062322e-05
-7.302653543907902e-05
-3.4446478980697995e-05
-3.169076066224221e-05
-3.4446478980697995e-05
-4.2713633936065354e-05
-3.4446478980697995e-05
-3.4446478980697995e-05
-8.680512703135793e-05
-6.475938048371164e-05
-4.2713633936065354e-05
-3.720219729915378e-05
-6.475938048371164e-05
-5.3736507209888505e-05
-2.8935042343786426e-05
-4.2713633936065354e-05
-4.2713633936065354e-05
-2.8935042343786426e-05
-2.8935042343786426e-05
-2.6179324025330647e-05
-2.066788738841907e-05
-1.5156450751507488e-05
-4.133577477684346e-06
1.3778591592272275e-06
-6.889295796140132e-06
4.133577477683014e-06
-1.377859159228559e-06
-1.5156450751507488e-05
1.3778591592272275e-06
-6.889295796140132e-06
-4.133577477684346e-06
9.64501411459459e-06
-1.377859159228559e-06
1.5156450751506162e-05
2.3423605706873515e-05
1.3778591592272275e-06
1.5156450751506162e-05
2.8935042343785094e-05
4.546935225451981e-05
2.066788738841773e-05
6.8892957961388014e-06
-4.133577477684346e-06
-2.066788738841907e-05
-1.240073243305171e-05
-6.889295796140132e-06
-1.377859159228559e-06
-1.7912169069963278e-05
-2.8935042343786426e-05
-4.2713633936065354e-05
-7.027081712062322e-05
-7.57822537575348e-05
-4.5469352254521147e-05
-5.3736507209888505e-05
-5.9247943846800084e-05
-6.475938048371164e-05
-7.57822537575348e-05
-6.475938048371164e-05
-7.57822537575348e-05
-6.889295796140132e-06
9.507228198672396e-05
0.00018049954985885336
0.00030450687418936376
0.0005635443961242077
0.0009576121156633854
0.0013268783703364606
0.0014811985961699847
0.001285542595559624
0.000806047608148317
0.000263171099412527
-0.0001198737468528274
-0.0002852168459601746
-0.00030175115587090934
-0.00021356816968032413
-0.00014743093003738526
-0.0001391637750820179
-0.0001391637750820179
-0.0001391637750820179
-9.507228198672531e-05
-7.57822537575348e-05
-9.231656366826955e-05
-0.00012814090180819475
-0.0001612095216296642
-0.00013089662012665053
-9.507228198672531e-05
-9.507228198672531e-05
-8.404940871290214e-05
-0.00010609515526054846
-0.00011436231021591582
-8.680512703135793e-05
-8.404940871290214e-05
-0.00010058371862363688
-0.00010333943694209268
-8.404940871290214e-05
-5.9247943846800084e-05
-5.3736507209888505e-05
-7.027081712062322e-05
-6.475938048371164e-05
-9.507228198672531e-05
-9.78280003051811e-05
-6.751509880216745e-05
-3.4446478980697995e-05
-1.7912169069963278e-05
-2.8935042343786426e-05
-1.5156450751507488e-05
9.64501411459459e-06
2.3423605706873515e-05
2.3423605706873515e-05
4.133577477683014e-06
1.3778591592272275e-06
2.6179324025329308e-05
7.02708171206219e-05
8.404940871290084e-05
9.507228198672396e-05
9.507228198672396e-05
0.00010333943694209132
0.00013640805676356078
0.0001694766765850302
0.0001694766765850302
0.00019427814145113231
0.00023010247959105753
0.0002383696345464249
0.0002135681696803228
0.00017774383154039756
0.00018876670481422076
0.0002190796063172344
0.000210812451361867
0.00018601098649576498
0.00016120952162966288
0.00015294236667429551
0.00013089662012664922
0.0001253851834897376
0.00010885087357900291
5.649222552834297e-05
6.8892957961388014e-06
-6.889295796140132e-06
9.64501411459459e-06
-9.64501411459592e-06
-6.475938048371164e-05
-6.475938048371164e-05
-5.9247943846800084e-05
-7.027081712062322e-05
-5.3736507209888505e-05
-6.751509880216745e-05
-0.00010609515526054846
-8.956084534981374e-05
-4.8225070572976926e-05
-4.2713633936065354e-05
-5.9247943846800084e-05
-7.302653543907902e-05
-8.680512703135793e-05
-7.302653543907902e-05
-5.6492225528344285e-05
-5.9247943846800084e-05
-5.9247943846800084e-05
-6.751509880216745e-05
-8.404940871290214e-05
-7.85379720759906e-05
-8.404940871290214e-05
-9.231656366826955e-05
-6.751509880216745e-05
-4.2713633936065354e-05
-4.8225070572976926e-05
-6.200366216525588e-05
-8.680512703135793e-05
-8.956084534981374e-05
-8.680512703135793e-05
-7.57822537575348e-05
-5.9247943846800084e-05
-5.6492225528344285e-05
-5.3736507209888505e-05
-3.4446478980697995e-05
-3.995791561760957e-05
-4.2713633936065354e-05
-3.169076066224221e-05
-4.2713633936065354e-05
-4.2713633936065354e-05
-4.8225070572976926e-05
-7.302653543907902e-05
-6.475938048371164e-05
-6.200366216525588e-05
-5.6492225528344285e-05
-4.8225070572976926e-05
-3.169076066224221e-05
-3.995791561760957e-05
-5.6492225528344285e-05
-6.200366216525588e-05
-5.098078889143272e-05
-2.6179324025330647e-05
-1.7912169069963278e-05
-2.066788738841907e-05
-2.066788738841907e-05
-9.64501411459592e-06
-1.7912169069963278e-05
-2.342360570687485e-05
-3.169076066224221e-05
-3.4446478980697995e-05
-1.5156450751507488e-05
-6.889295796140132e-06
-9.64501411459592e-06
9.64501411459459e-06
6.8892957961388014e-06
9.64501411459459e-06
3.720219729915245e-05
-4.133577477684346e-06
-1.7912169069963278e-05
1.3778591592272275e-06
6.8892957961388014e-06
1.5156450751506162e-05
9.64501411459459e-06
-1.377859159228559e-06
4.133577477683014e-06
4.133577477683014e-06
3.169076066224089e-05
9.64501411459459e-06
-3.169076066224221e-05
-2.8935042343786426e-05
-1.240073243305171e-05
-3.720219729915378e-05
-6.475938048371164e-05
-6.475938048371164e-05
-6.751509880216745e-05
-5.6492225528344285e-05
-4.2713633936065354e-05
-5.6492225528344285e-05
-6.200366216525588e-05
-5.098078889143272e-05
-5.098078889143272e-05
-4.5469352254521147e-05
-3.720219729915378e-05
-4.5469352254521147e-05
-1.240073243305171e-05
5.9247943846798756e-05
0.0001556980849927513
0.0002769496910048059
0.0005304757763027383
0.0009024977492942696
0.001285542595559624
0.001423328511482413
0.0012111382009613175
0.0007426660868238338
0.00019427814145113231
-0.0001777438315403989
-0.0003127740291447324
-0.0003210411841000998
-0.00029348400091554195
-0.00024388107118333775
-0.00019152242313267784
-0.00015294236667429682
-0.00010885087357900426
-0.00011160659189746003
-0.0001171180285343716
-0.00012538518348973897
-0.0001171180285343716
-0.00011160659189746003
-0.00012814090180819475
-0.00012538518348973897
-0.0001198737468528274
-0.0001336523384451063
-0.0001171180285343716
-8.956084534981374e-05
-9.78280003051811e-05
-0.00011436231021591582
-0.0001226294651712832
-9.78280003051811e-05
-5.9247943846800084e-05
-7.027081712062322e-05
-8.956084534981374e-05
-8.129369039444639e-05
-7.027081712062322e-05
-7.302653543907902e-05
-7.85379720759906e-05
-8.956084534981374e-05
-7.57822537575348e-05
-3.995791561760957e-05
-2.6179324025330647e-05
-5.6492225528344285e-05
-3.995791561760957e-05
-1.240073243305171e-05
-1.5156450751507488e-05
-2.6179324025330647e-05
-1.377859159228559e-06
2.066788738841773e-05
3.9957915617608246e-05
7.853797207598924e-05
0.00011711802853437029
0.00010609515526054714
0.00011160659189745871
0.00015018664835583973
0.00017774383154039756
0.00018049954985885336
0.00018876670481422076
0.00017498811322194178
0.0001556980849927513
0.0001556980849927513
0.00017774383154039756
0.00018876670481422076
0.00015845380331120705
0.00014467521171892812
0.00014467521171892812
0.00013916377508201656
0.00012262946517128183
8.956084534981241e-05
4.82250705729756e-05
2.8935042343785094e-05
2.8935042343785094e-05
-6.889295796140132e-06
-3.995791561760957e-05
-5.6492225528344285e-05
-4.8225070572976926e-05
-4.5469352254521147e-05
-5.9247943846800084e-05
-7.57822537575348e-05
-0.00010609515526054846
-0.00010609515526054846
-8.404940871290214e-05
-7.85379720759906e-05
-0.00011436231021591582
-0.00012814090180819475
-9.78280003051811e-05
-5.9247943846800084e-05
-5.098078889143272e-05
-8.680512703135793e-05
-0.0001336523384451063
-0.00013089662012665053
-0.00010885087357900426
-9.78280003051811e-05
-9.507228198672531e-05
-0.00011436231021591582
-0.0001198737468528274
-0.00011160659189746003
-0.0001171180285343716
-0.00012814090180819475
-0.0001171180285343716
-0.0001198737468528274
-0.00011436231021591582
-8.129369039444639e-05
-7.85379720759906e-05
-8.680512703135793e-05
-0.00010609515526054846
-0.00010058371862363688
-8.404940871290214e-05
-9.231656366826955e-05
-0.00010885087357900426
-0.00010058371862363688
-7.57822537575348e-05
-7.57822537575348e-05
-8.956084534981374e-05
-8.956084534981374e-05
-7.85379720759906e-05
-7.027081712062322e-05
-7.85379720759906e-05
-6.751509880216745e-05
-5.3736507209888505e-05
-6.475938048371164e-05
-4.8225070572976926e-05
-4.8225070572976926e-05
-7.027081712062322e-05
-7.027081712062322e-05
-7.85379720759906e-05
-6.200366216525588e-05
-4.2713633936065354e-05
-3.720219729915378e-05
-4.2713633936065354e-05
-4.2713633936065354e-05
-5.098078889143272e-05
-4.5469352254521147e-05
-4.2713633936065354e-05
-5.098078889143272e-05
-5.9247943846800084e-05
-5.098078889143272e-05
-2.8935042343786426e-05
-1.7912169069963278e-05
-6.889295796140132e-06
-1.7912169069963278e-05
-2.8935042343786426e-05
-2.342360570687485e-05
-1.240073243305171e-05
-1.377859159228559e-06
1.3778591592272275e-06
9.64501411459459e-06
-6.889295796140132e-06
-2.342360570687485e-05
-1.240073243305171e-05
-3.169076066224221e-05
-3.995791561760957e-05
-3.169076066224221e-05
-9.64501411459592e-06
-1.5156450751507488e-05
-3.4446478980697995e-05
-6.751509880216745e-05
-9.78280003051811e-05
-0.0001171180285343716
-0.00010058371862363688
-0.00010609515526054846
-0.00010885087357900426
-0.00011160659189746003
-9.231656366826955e-05
-0.00010058371862363688
-0.00010058371862363688
-9.78280003051811e-05
-9.78280003051811e-05
-5.3736507209888505e-05
-1.240073243305171e-05
5.373650720988717e-05
0.00016672095826657444
0.0003375754940108332
0.000637948790722514
0.0009796578622110316
0.0011753138628213923
0.0010761080033569843
0.0007316432135500107
0.00032655262073701005
-7.027081712062322e-05
-0.0003155297474631883
-0.0003954455786984061
-0.0003513540856031135
-0.00027970540932326305
-0.00022734676127260308
-0.00019703385976958942
-0.00017498811322194308
-0.00016672095826657574
-0.00014467521171892948
-0.0001391637750820179
-0.00014467521171892948
-0.00014191949340047367
-0.00015569808499275262
-0.00014743093003738526
-0.0001198737468528274
-9.78280003051811e-05
-0.00010058371862363688
-0.00011160659189746003
-0.0001226294651712832
-0.0001171180285343716
-0.00010333943694209268
-0.00010333943694209268
-0.00011160659189746003
-0.00011436231021591582
-0.00010609515526054846
-8.680512703135793e-05
-9.231656366826955e-05
-0.00011436231021591582
-0.0001226294651712832
-9.507228198672531e-05
-8.956084534981374e-05
-0.00011160659189746003
-8.956084534981374e-05
-5.6492225528344285e-05
-4.8225070572976926e-05
-4.2713633936065354e-05
-4.2713633936065354e-05
-4.2713633936065354e-05
-2.6179324025330647e-05
1.5156450751506162e-05
3.720219729915245e-05
2.3423605706873515e-05
2.066788738841773e-05
2.6179324025329308e-05
3.720219729915245e-05
0.00010609515526054714
0.00011987374685282605
0.00012262946517128183
0.00013640805676356078
0.00016120952162966288
0.00017774383154039756
0.0001694766765850302
0.00012814090180819342
0.00010609515526054714
0.00011987374685282605
0.00015018664835583973
0.00015018664835583973
0.0001253851834897376
8.956084534981241e-05
8.404940871290084e-05
8.956084534981241e-05
5.373650720988717e-05
2.6179324025329308e-05
-4.133577477684346e-06
-2.066788738841907e-05
-3.720219729915378e-05
-4.2713633936065354e-05
-5.9247943846800084e-05
-7.85379720759906e-05
-8.129369039444639e-05
-7.302653543907902e-05
-7.85379720759906e-05
-0.00010609515526054846
-0.00010885087357900426
-8.680512703135793e-05
-9.231656366826955e-05
-0.0001226294651712832
-9.507228198672531e-05
-8.404940871290214e-05
-9.507228198672531e-05
-0.00010058371862363688
-8.129369039444639e-05
-7.85379720759906e-05
-9.231656366826955e-05
-8.129369039444639e-05
-5.9247943846800084e-05
-9.507228198672531e-05
-0.0001171180285343716
-0.0001226294651712832
-0.00012538518348973897
-0.00010885087357900426
-0.00010609515526054846
-8.680512703135793e-05
-9.231656366826955e-05
-9.231656366826955e-05
-8.680512703135793e-05
-8.680512703135793e-05
-7.027081712062322e-05
-8.129369039444639e-05
-8.680512703135793e-05
-0.00010333943694209268
-8.956084534981374e-05
-7.85379720759906e-05
-8.680512703135793e-05
-7.57822537575348e-05
-7.85379720759906e-05
-6.751509880216745e-05
-6.200366216525588e-05
-7.302653543907902e-05
-7.027081712062322e-05
-4.5469352254521147e-05
-3.4446478980697995e-05
-2.6179324025330647e-05
-5.6492225528344285e-05
-6.751509880216745e-05
-4.2713633936065354e-05
-3.995791561760957e-05
-2.8935042343786426e-05
-1.5156450751507488e-05
-2.342360570687485e-05
-5.3736507209888505e-05
-3.995791561760957e-05
-4.5469352254521147e-05
-4.5469352254521147e-05
-2.066788738841907e-05
-6.889295796140132e-06
6.8892957961388014e-06
9.64501411459459e-06
-1.5156450751507488e-05
-2.6179324025330647e-05
-1.5156450751507488e-05
1.2400732433050376e-05
6.8892957961388014e-06
-6.889295796140132e-06
-6.889295796140132e-06
-1.240073243305171e-05
-6.889295796140132e-06
2.066788738841773e-05
9.64501411459459e-06
4.133577477683014e-06
1.7912169069961946e-05
6.8892957961388014e-06
3.169076066224089e-05
3.444647898069667e-05
-4.133577477684346e-06
-2.342360570687485e-05
-3.169076066224221e-05
-4.5469352254521147e-05
-5.3736507209888505e-05
-5.6492225528344285e-05
-7.85379720759906e-05
-7.57822537575348e-05
-5.6492225528344285e-05
-6.200366216525588e-05
-6.475938048371164e-05
-5.6492225528344285e-05
-5.3736507209888505e-05
-7.027081712062322e-05
-7.57822537575348e-05
-4.2713633936065354e-05
-4.133577477684346e-06
6.200366216525454e-05
0.000172232394903486
0.00032655262073701005
0.0006296816357671465
0.0010209936369878683
0.001321366933699549
0.001379237018387121
0.0011009094682230861
0.0006048801709010444
8.956084534981241e-05
-0.00024388107118333775
-0.0003320640573739229
-0.00029348400091554195
-0.0002466367895017936
-0.0001997895780880452
-0.00014743093003738526
-0.0001364080567635621
-0.0001198737468528274
-0.0001171180285343716
-0.0001226294651712832
-0.00012814090180819475
-0.00012538518348973897
-0.00011160659189746003
-8.680512703135793e-05
-9.231656366826955e-05
-0.00012538518348973897
-0.00011436231021591582
-0.00011436231021591582
-9.78280003051811e-05
-0.00010058371862363688
-0.00010885087357900426
-8.956084534981374e-05
-7.85379720759906e-05
-8.956084534981374e-05
-0.00010885087357900426
-9.231656366826955e-05
-6.751509880216745e-05
-5.9247943846800084e-05
-5.098078889143272e-05
-7.57822537575348e-05
-8.680512703135793e-05
-4.5469352254521147e-05
-2.6179324025330647e-05
-1.5156450751507488e-05
-2.342360570687485e-05
-3.169076066224221e-05
-2.342360570687485e-05
1.3778591592272275e-06
1.2400732433050376e-05
1.5156450751506162e-05
2.3423605706873515e-05
4.82250705729756e-05
6.475938048371032e-05
0.00010333943694209132
0.00011987374685282605
0.00013089662012664922
0.0001253851834897376
0.0001556980849927513
0.00019978957808804387
0.00019427814145113231
0.00018876670481422076
0.00017774383154039756
0.00019427814145113231
0.0001970338597695881
0.00020530101472495543
0.0001832552681773092
0.0001556980849927513
0.00011711802853437029
0.00010609515526054714
0.00013365233844510492
8.956084534981241e-05
4.546935225451981e-05
3.9957915617608246e-05
3.169076066224089e-05
1.2400732433050376e-05
-1.5156450751507488e-05
-2.6179324025330647e-05
-4.5469352254521147e-05
-4.5469352254521147e-05
-5.098078889143272e-05
-7.027081712062322e-05
-0.00010058371862363688
-8.404940871290214e-05
-7.85379720759906e-05
-9.78280003051811e-05
-9.507228198672531e-05
-9.231656366826955e-05
-9.507228198672531e-05
-7.302653543907902e-05
-8.404940871290214e-05
-0.0001171180285343716
-9.231656366826955e-05
-7.302653543907902e-05
-0.00010333943694209268
-0.00010058371862363688
-7.85379720759906e-05
-8.129369039444639e-05
-8.404940871290214e-05
-7.57822537575348e-05
-7.302653543907902e-05
-9.231656366826955e-05
-0.00010058371862363688
-9.78280003051811e-05
-0.00010609515526054846
-0.00010885087357900426
-0.00010333943694209268
-0.00010333943694209268
-0.0001226294651712832
-0.00010058371862363688
-8.956084534981374e-05
-9.78280003051811e-05
-8.404940871290214e-05
-8.680512703135793e-05
-8.680512703135793e-05
-8.404940871290214e-05
-5.3736507209888505e-05
-7.027081712062322e-05
-0.00010609515526054846
-8.404940871290214e-05
-7.027081712062322e-05
-7.027081712062322e-05
-5.098078889143272e-05
-5.098078889143272e-05
-6.751509880216745e-05
-5.3736507209888505e-05
-3.995791561760957e-05
-3.995791561760957e-05
-7.027081712062322e-05
-9.507228198672531e-05
-5.3736507209888505e-05
-4.5469352254521147e-05
-7.302653543907902e-05
-7.302653543907902e-05
-4.5469352254521147e-05
-3.995791561760957e-05
-4.5469352254521147e-05
-6.475938048371164e-05
-8.956084534981374e-05
-0.0001171180285343716
-3.169076066224221e-05
1.3778591592272275e-06
6.8892957961388014e-06
1.2400732433050376e-05
1.3778591592272275e-06
4.133577477683014e-06
1.7912169069961946e-05
1.7912169069961946e-05
-1.377859159228559e-06
-6.889295796140132e-06
-9.64501411459592e-06
6.8892957961388014e-06
2.3423605706873515e-05
1.7912169069961946e-05
1.2400732433050376e-05
-2.066788738841907e-05
-3.169076066224221e-05
-3.995791561760957e-05
-6.475938048371164e-05
-7.85379720759906e-05
-7.85379720759906e-05
-9.78280003051811e-05
-0.00010609515526054846
-0.00010609515526054846
-0.00010885087357900426
-9.78280003051811e-05
-6.475938048371164e-05
-5.3736507209888505e-05
-8.680512703135793e-05
-0.0001226294651712832
-0.00011160659189746003
-5.9247943846800084e-05
-6.889295796140132e-06
2.3423605706873515e-05
0.00017774383154039756
0.0003954455786984048
0.0007233760585946433
0.0011146880598153653
0.0014178170748455018
0.0014371071030746922
0.0011091766231784534
0.0005773229877164866
5.098078889143139e-05
-0.00023285819790951464
-0.0003127740291447324
-0.0002989954375524536
-0.00026592681773098404
-0.00022459104295414727
-0.000150186648355841
-0.0001364080567635621
-0.00015569808499275262
-0.00014743093003738526
-0.0001336523384451063
-0.00014467521171892948
-0.0001584538033112084
-0.0001364080567635621
-0.0001336523384451063
-0.00012814090180819475
-0.00011436231021591582
-0.0001171180285343716
-0.0001336523384451063
-0.00012814090180819475
-0.00010609515526054846
-8.956084534981374e-05
-0.00010058371862363688
-0.00010609515526054846
-0.00010058371862363688
-0.00010609515526054846
-9.78280003051811e-05
-6.751509880216745e-05
-0.00010885087357900426
-0.00017223239490348733
-7.57822537575348e-05
-4.8225070572976926e-05
-5.098078889143272e-05
-2.8935042343786426e-05
-2.6179324025330647e-05
-2.066788738841907e-05
-1.5156450751507488e-05
-2.6179324025330647e-05
-1.240073243305171e-05
1.2400732433050376e-05
3.444647898069667e-05
3.9957915617608246e-05
4.82250705729756e-05
7.30265354390777e-05
8.129369039444505e-05
0.00010333943694209132
0.00012814090180819342
0.00013089662012664922
8.68051270313566e-05
5.098078889143139e-05
0.00013916377508201656
0.00022459104295414594
0.0002493925078202481
0.00025214822613870384
0.00022734676127260172
0.00020254529640649968
0.00020530101472495543
0.00018601098649576498
0.0001694766765850302
0.00015018664835583973
0.00011711802853437029
8.129369039444505e-05
4.271363393606403e-05
2.8935042343785094e-05
3.169076066224089e-05
9.64501411459459e-06
-4.133577477684346e-06
-1.7912169069963278e-05
-2.342360570687485e-05
-3.720219729915378e-05
-5.6492225528344285e-05
-6.475938048371164e-05
-8.680512703135793e-05
-7.027081712062322e-05
-9.78280003051811e-05
-0.00011436231021591582
-0.00010885087357900426
-7.027081712062322e-05
-8.129369039444639e-05
-0.00016947667658503157
-0.00010333943694209268
-7.027081712062322e-05
-6.751509880216745e-05
-7.027081712062322e-05
-7.85379720759906e-05
-8.129369039444639e-05
-0.00010058371862363688
-8.680512703135793e-05
-5.3736507209888505e-05
-6.751509880216745e-05
-9.507228198672531e-05
-0.00010058371862363688
-9.507228198672531e-05
-8.680512703135793e-05
-8.404940871290214e-05
-9.507228198672531e-05
-7.85379720759906e-05
-7.302653543907902e-05
-7.302653543907902e-05
-8.404940871290214e-05
-0.0001226294651712832
-0.00013089662012665053
-7.85379720759906e-05
-5.6492225528344285e-05
-9.78280003051811e-05
-0.00014191949340047367
-5.6492225528344285e-05
-2.6179324025330647e-05
-3.995791561760957e-05
-4.5469352254521147e-05
-5.3736507209888505e-05
-6.475938048371164e-05
-4.2713633936065354e-05
-2.6179324025330647e-05
-4.8225070572976926e-05
-7.302653543907902e-05
-4.5469352254521147e-05
-2.342360570687485e-05
-3.720219729915378e-05
-6.200366216525588e-05
-4.2713633936065354e-05
-6.475938048371164e-05
-5.9247943846800084e-05
-2.6179324025330647e-05
-2.342360570687485e-05
-2.8935042343786426e-05
-4.8225070572976926e-05
-1.5156450751507488e-05
-6.889295796140132e-06
-5.098078889143272e-05
-0.00012814090180819475
-6.751509880216745e-05
1.3778591592272275e-06
1.7912169069961946e-05
3.444647898069667e-05
2.8935042343785094e-05
3.169076066224089e-05
1.2400732433050376e-05
1.7912169069961946e-05
1.2400732433050376e-05
2.6179324025329308e-05
1.5156450751506162e-05
-2.6179324025330647e-05
-3.4446478980697995e-05
-2.066788738841907e-05
-2.342360570687485e-05
-4.5469352254521147e-05
-5.098078889143272e-05
-4.2713633936065354e-05
-7.027081712062322e-05
-8.404940871290214e-05
-9.231656366826955e-05
-9.231656366826955e-05
-9.507228198672531e-05
-8.129369039444639e-05
-6.751509880216745e-05
-7.027081712062322e-05
-7.027081712062322e-05
-9.78280003051811e-05
-0.00013089662012665053
2.3423605706873515e-05
7.30265354390777e-05
0.00015018664835583973
0.00026592681773098274
0.0004863842832074457
0.0008280933546959632
0.0011863367360952157
0.0013957713282978553
0.0013020769054703587
0.0008997420309758136
0.0003568655222400236
-7.57822537575348e-05
-0.00030726259250782084
-0.0003375754940108345
-0.00027419397268635144
-0.00022459104295414727
-0.0001997895780880452
-0.00017498811322194308
-0.0001612095216296642
-0.00014743093003738526
-0.0001364080567635621
-0.00016396523994811996
-0.0001584538033112084
-0.0001336523384451063
-0.0001336523384451063
-0.00013089662012665053
-0.0001226294651712832
-0.0001364080567635621
-0.00014467521171892948
-0.00011436231021591582
-8.956084534981374e-05
-0.00010609515526054846
-0.0001171180285343716
-0.00012538518348973897
-0.00012814090180819475
-0.00013089662012665053
-0.0001336523384451063
-0.0002080567330434125
-0.00017498811322194308
-9.231656366826955e-05
-7.57822537575348e-05
-5.9247943846800084e-05
-5.098078889143272e-05
-7.85379720759906e-05
-7.027081712062322e-05
-4.2713633936065354e-05
-5.098078889143272e-05
-5.6492225528344285e-05
-5.3736507209888505e-05
-4.2713633936065354e-05
-2.066788738841907e-05
-1.240073243305171e-05
1.2400732433050376e-05
1.5156450751506162e-05
3.169076066224089e-05
5.373650720988717e-05
7.02708171206219e-05
7.02708171206219e-05
7.30265354390777e-05
9.782800030517979e-05
0.00011711802853437029
0.00014743093003738393
0.00016120952162966288
0.00017498811322194178
0.00013916377508201656
0.0001556980849927513
0.00014743093003738393
0.00014191949340047234
0.00012814090180819342
0.00011160659189745871
0.00010333943694209132
7.02708171206219e-05
1.2400732433050376e-05
-1.377859159228559e-06
1.7912169069961946e-05
4.133577477683014e-06
-1.5156450751507488e-05
-3.995791561760957e-05
-8.404940871290214e-05
-0.00011160659189746003
-0.0001364080567635621
-0.00014191949340047367
-0.0001171180285343716
-0.0001198737468528274
-9.78280003051811e-05
-9.231656366826955e-05
-0.00010609515526054846
-0.00010333943694209268
-8.404940871290214e-05
-0.00010885087357900426
-0.00010609515526054846
-9.78280003051811e-05
-9.507228198672531e-05
-0.00011160659189746003
-0.00011436231021591582
-0.00011160659189746003
-0.00010885087357900426
-0.00010609515526054846
-9.78280003051811e-05
-0.00010885087357900426
-8.956084534981374e-05
-7.57822537575348e-05
-8.129369039444639e-05
-9.231656366826955e-05
-0.00010333943694209268
-9.78280003051811e-05
-9.231656366826955e-05
-7.85379720759906e-05
-6.475938048371164e-05
-6.200366216525588e-05
-7.027081712062322e-05
-8.129369039444639e-05
-8.129369039444639e-05
-6.751509880216745e-05
-4.8225070572976926e-05
-7.57822537575348e-05
-7.85379720759906e-05
-6.200366216525588e-05
-3.995791561760957e-05
-4.2713633936065354e-05
-5.6492225528344285e-05
-5.098078889143272e-05
-3.720219729915378e-05
-4.8225070572976926e-05
-3.720219729915378e-05
-2.342360570687485e-05
-1.5156450751507488e-05
-1.240073243305171e-05
-1.5156450751507488e-05
-2.342360570687485e-05
-3.995791561760957e-05
-2.342360570687485e-05
-1.377859159228559e-06
1.3778591592272275e-06
-2.342360570687485e-05
-2.342360570687485e-05
4.133577477683014e-06
-1.377859159228559e-06
4.133577477683014e-06
-1.377859159228559e-06
-1.5156450751507488e-05
-9.64501411459592e-06
6.8892957961388014e-06
2.8935042343785094e-05
2.3423605706873515e-05
6.8892957961388014e-06
-1.377859159228559e-06
3.444647898069667e-05
5.098078889143139e-05
7.30265354390777e-05
6.751509880216611e-05
3.444647898069667e-05
1.2400732433050376e-05
-1.377859159228559e-06
-1.240073243305171e-05
-2.8935042343786426e-05
-3.995791561760957e-05
-2.342360570687485e-05
-2.342360570687485e-05
-3.169076066224221e-05
-7.027081712062322e-05
-8.129369039444639e-05
-7.57822537575348e-05
-5.098078889143272e-05
-5.098078889143272e-05
-5.3736507209888505e-05
-7.302653543907902e-05
-5.9247943846800084e-05
-3.720219729915378e-05
-1.5156450751507488e-05
1.3778591592272275e-06
2.6179324025329308e-05
0.00010885087357900291
0.00024112535286488067
0.00042851419851987416
0.0007123531853208202
0.0010265050736247801
0.0012221610742351409
0.0011229552147707324
0.0007784904249637591
0.000315529747463187
-6.200366216525588e-05
-0.0002604153810940725
-0.00030175115587090934
-0.0002466367895017936
-0.0002080567330434125
-0.00020530101472495681
-0.00019427814145113364
-0.0001336523384451063
-9.231656366826955e-05
-9.231656366826955e-05
-0.00010333943694209268
-0.00010058371862363688
-7.302653543907902e-05
-8.956084534981374e-05
-0.00010058371862363688
-8.680512703135793e-05
-6.200366216525588e-05
-1.7912169069963278e-05
-2.6179324025330647e-05
-6.751509880216745e-05
-0.00010333943694209268
-8.956084534981374e-05
-6.200366216525588e-05
-4.8225070572976926e-05
-4.5469352254521147e-05
-4.5469352254521147e-05
-4.5469352254521147e-05
-2.8935042343786426e-05
-3.4446478980697995e-05
-4.5469352254521147e-05
-3.995791561760957e-05
-3.995791561760957e-05
-4.2713633936065354e-05
-1.240073243305171e-05
1.5156450751506162e-05
3.720219729915245e-05
4.82250705729756e-05
2.6179324025329308e-05
3.720219729915245e-05
4.82250705729756e-05
6.475938048371032e-05
9.23165636682682e-05
8.956084534981241e-05
9.782800030517979e-05
0.00014467521171892812
0.00016396523994811866
0.00016120952162966288
0.00015845380331120705
0.00017774383154039756
0.00020530101472495543
0.00019152242313267648
0.00018876670481422076
0.00020530101472495543
0.00019152242313267648
0.0001970338597695881
0.00019978957808804387
0.00018601098649576498
0.0001556980849927513
0.00014467521171892812
0.00016672095826657444
0.00013089662012664922
8.404940871290084e-05
5.373650720988717e-05
3.720219729915245e-05
4.82250705729756e-05
5.373650720988717e-05
4.133577477683014e-06
-3.169076066224221e-05
-3.169076066224221e-05
-3.169076066224221e-05
-2.6179324025330647e-05
-1.7912169069963278e-05
-2.6179324025330647e-05
-4.2713633936065354e-05
-1.7912169069963278e-05
-9.64501411459592e-06
-2.342360570687485e-05
-5.3736507209888505e-05
-9.231656366826955e-05
-8.129369039444639e-05
-3.720219729915378e-05
-2.8935042343786426e-05
-4.2713633936065354e-05
-6.751509880216745e-05
-6.200366216525588e-05
-6.200366216525588e-05
-5.3736507209888505e-05
-5.098078889143272e-05
-3.995791561760957e-05
-3.720219729915378e-05
-2.6179324025330647e-05
-2.342360570687485e-05
-4.8225070572976926e-05
-5.3736507209888505e-05
-4.2713633936065354e-05
-3.720219729915378e-05
-7.57822537575348e-05
-5.6492225528344285e-05
-5.6492225528344285e-05
-5.6492225528344285e-05
-2.342360570687485e-05
-9.64501411459592e-06
-4.133577477684346e-06
-1.5156450751507488e-05
-1.5156450751507488e-05
-1.377859159228559e-06
-2.342360570687485e-05
-3.995791561760957e-05
-3.995791561760957e-05
-5.098078889143272e-05
-9.64501411459592e-06
4.271363393606403e-05
1.5156450751506162e-05
-1.377859159228559e-06
6.8892957961388014e-06
2.3423605706873515e-05
4.82250705729756e-05
2.066788738841773e-05
6.8892957961388014e-06
6.8892957961388014e-06
1.7912169069961946e-05
1.5156450751506162e-05
-1.240073243305171e-05
-3.720219729915378e-05
-2.8935042343786426e-05
3.9957915617608246e-05
7.30265354390777e-05
5.373650720988717e-05
5.373650720988717e-05
5.9247943846798756e-05
5.373650720988717e-05
2.6179324025329308e-05
1.2400732433050376e-05
2.8935042343785094e-05
1.5156450751506162e-05
1.2400732433050376e-05
4.82250705729756e-05
5.9247943846798756e-05
4.271363393606403e-05
1.2400732433050376e-05
3.169076066224089e-05
4.271363393606403e-05
1.7912169069961946e-05
-7.027081712062322e-05
-6.751509880216745e-05
-6.475938048371164e-05
-9.231656366826955e-05
-6.200366216525588e-05
-2.342360570687485e-05
-4.5469352254521147e-05
-8.680512703135793e-05
-7.57822537575348e-05
-4.8225070572976926e-05
-4.5469352254521147e-05
-4.8225070572976926e-05
-6.200366216525588e-05
-6.475938048371164e-05
-6.475938048371164e-05
-4.5469352254521147e-05
2.8935042343785094e-05
0.00013089662012664922
0.00027970540932326175
0.000560788677805752
0.0008418719462882423
0.0011560238345922017
0.0012910540321965354
0.001089886594949263
0.0006517273823147929
0.0001556980849927513
-0.0002190796063172357
-0.00036788839551384826
-0.0003596212405584808
-0.0002852168459601746
-0.00021632388799877996
-0.00017223239490348733
-0.0001391637750820179
-0.00012538518348973897
-0.0001226294651712832
-0.0001391637750820179
-0.0001226294651712832
-0.00012538518348973897
-0.00014743093003738526
-0.00015294236667429682
-0.00013089662012665053
-0.00010333943694209268
-8.956084534981374e-05
-7.027081712062322e-05
-6.200366216525588e-05
-5.3736507209888505e-05
-7.57822537575348e-05
-9.507228198672531e-05
-8.129369039444639e-05
-6.475938048371164e-05
-6.751509880216745e-05
-7.85379720759906e-05
-0.00010609515526054846
-7.85379720759906e-05
-8.129369039444639e-05
-7.027081712062322e-05
-5.098078889143272e-05
-6.751509880216745e-05
-5.9247943846800084e-05
-2.8935042343786426e-05
-3.995791561760957e-05
-5.3736507209888505e-05
1.3778591592272275e-06
-9.64501411459592e-06
2.6179324025329308e-05
6.200366216525454e-05
7.02708171206219e-05
5.9247943846798756e-05
8.404940871290084e-05
0.00011160659189745871
0.00011711802853437029
0.00013640805676356078
0.00015294236667429551
0.00015294236667429551
0.00016396523994811866
0.00018601098649576498
0.000172232394903486
0.00016672095826657444
0.00016672095826657444
0.00020254529640649968
0.0002190796063172344
0.00016396523994811866
8.404940871290084e-05
0.00011711802853437029
0.000172232394903486
0.00015845380331120705
0.00014191949340047234
8.956084534981241e-05
4.271363393606403e-05
2.8935042343785094e-05
3.169076066224089e-05
6.8892957961388014e-06
-3.995791561760957e-05
-6.200366216525588e-05
-7.57822537575348e-05
-7.85379720759906e-05
-5.6492225528344285e-05
-7.57822537575348e-05
-8.404940871290214e-05
-9.231656366826955e-05
-7.027081712062322e-05
-3.995791561760957e-05
-7.85379720759906e-05
-0.00016672095826657574
-0.00012814090180819475
-7.027081712062322e-05
-7.027081712062322e-05
-5.9247943846800084e-05
-5.6492225528344285e-05
-4.8225070572976926e-05
-6.200366216525588e-05
-9.231656366826955e-05
-0.00011160659189746003
-0.00011160659189746003
-0.00011160659189746003
-7.85379720759906e-05
-5.3736507209888505e-05
-6.200366216525588e-05
-6.751509880216745e-05
-6.751509880216745e-05
-6.751509880216745e-05
-7.027081712062322e-05
-7.57822537575348e-05
-0.0001336523384451063
-0.00013089662012665053
-3.4446478980697995e-05
-9.64501411459592e-06
-2.066788738841907e-05
-6.200366216525588e-05
-0.00010333943694209268
-4.8225070572976926e-05
-1.240073243305171e-05
-1.377859159228559e-06
-1.240073243305171e-05
-2.6179324025330647e-05
-1.7912169069963278e-05
-2.342360570687485e-05
-4.2713633936065354e-05
-3.169076066224221e-05
-2.6179324025330647e-05
1.3778591592272275e-06
1.7912169069961946e-05
1.5156450751506162e-05
6.8892957961388014e-06
-1.377859159228559e-06
-1.240073243305171e-05
-4.133577477684346e-06
2.066788738841773e-05
2.3423605706873515e-05
-1.240073243305171e-05
-4.8225070572976926e-05
1.5156450751506162e-05
5.373650720988717e-05
3.9957915617608246e-05
4.271363393606403e-05
5.373650720988717e-05
6.475938048371032e-05
5.373650720988717e-05
2.3423605706873515e-05
6.8892957961388014e-06
2.066788738841773e-05
5.9247943846798756e-05
7.578225375753347e-05
8.129369039444505e-05
6.200366216525454e-05
3.444647898069667e-05
1.7912169069961946e-05
1.5156450751506162e-05
2.066788738841773e-05
9.64501411459459e-06
-9.64501411459592e-06
-1.240073243305171e-05
4.133577477683014e-06
4.133577477683014e-06
-1.5156450751507488e-05
-5.6492225528344285e-05
-7.302653543907902e-05
-4.8225070572976926e-05
-3.995791561760957e-05
-3.995791561760957e-05
-4.8225070572976926e-05
-3.4446478980697995e-05
-3.995791561760957e-05
-1.240073243305171e-05
-1.240073243305171e-05
5.098078889143139e-05
0.00024112535286488067
0.00043126991683832994
0.0007040860303654528
0.001037527946898603
0.0013103440604257258
0.001324122652018005
0.0010540622568093376
0.0006021244525825888
-0.00024388107118333775
-0.0003348197756923787
-0.00029348400091554195
-0.0002080567330434125
-0.00013089662012665053
-9.78280003051811e-05
-0.00010333943694209268
-0.00010058371862363688
-7.302653543907902e-05
-6.200366216525588e-05
-5.9247943846800084e-05
-7.85379720759906e-05
-8.404940871290214e-05
-5.9247943846800084e-05
-5.6492225528344285e-05
-0.00011160659189746003
-0.0001226294651712832
-4.8225070572976926e-05
-2.8935042343786426e-05
-2.6179324025330647e-05
-3.720219729915378e-05
-3.720219729915378e-05
-2.342360570687485e-05
-2.066788738841907e-05
-2.342360570687485e-05
-2.342360570687485e-05
-1.7912169069963278e-05
-2.066788738841907e-05
-3.4446478980697995e-05
-3.4446478980697995e-05
4.133577477683014e-06
6.8892957961388014e-06
-1.377859159228559e-06
1.7912169069961946e-05
4.546935225451981e-05
5.373650720988717e-05
3.444647898069667e-05
2.6179324025329308e-05
-1.377859159228559e-06
2.3423605706873515e-05
0.00010333943694209132
0.00013640805676356078
0.00013916377508201656
0.00013916377508201656
0.00017498811322194178
0.0002135681696803228
0.0002190796063172344
0.00020254529640649968
0.00020254529640649968
0.00022459104295414594
0.00024388107118333642
0.0002493925078202481
0.00024388107118333642
0.0002383696345464249
0.00024388107118333642
0.0002549039444571596
0.0002549039444571596
0.00023561391622796914
0.00016120952162966288
0.00011711802853437029
0.0001694766765850302
0.0001556980849927513
0.00013916377508201656
0.00011987374685282605
7.853797207598924e-05
4.271363393606403e-05
2.6179324025329308e-05
2.6179324025329308e-05
9.64501411459459e-06
-1.7912169069963278e-05
-1.7912169069963278e-05
-2.8935042343786426e-05
-3.4446478980697995e-05
-3.4446478980697995e-05
-8.129369039444639e-05
-5.6492225528344285e-05
1.3778591592272275e-06
-1.5156450751507488e-05
-2.6179324025330647e-05
-3.169076066224221e-05
-2.6179324025330647e-05
-2.8935042343786426e-05
-3.169076066224221e-05
-1.240073243305171e-05
-4.2713633936065354e-05
-4.2713633936065354e-05
-3.169076066224221e-05
-2.8935042343786426e-05
-3.995791561760957e-05
-5.098078889143272e-05
-2.342360570687485e-05
-5.6492225528344285e-05
-4.8225070572976926e-05
-9.64501411459592e-06
-2.066788738841907e-05
-3.995791561760957e-05
-2.6179324025330647e-05
1.3778591592272275e-06
1.3778591592272275e-06
-2.066788738841907e-05
-5.098078889143272e-05
-5.3736507209888505e-05
-4.2713633936065354e-05
-3.720219729915378e-05
-3.169076066224221e-05
-6.889295796140132e-06
9.64501411459459e-06
6.8892957961388014e-06
-5.098078889143272e-05
-9.231656366826955e-05
-6.889295796140132e-06
2.3423605706873515e-05
1.7912169069961946e-05
1.7912169069961946e-05
-9.64501411459592e-06
-3.169076066224221e-05
-4.133577477684346e-06
2.8935042343785094e-05
1.7912169069961946e-05
1.7912169069961946e-05
9.64501411459459e-06
2.066788738841773e-05
1.5156450751506162e-05
1.7912169069961946e-05
5.649222552834297e-05
5.098078889143139e-05
2.3423605706873515e-05
3.169076066224089e-05
1.2400732433050376e-05
-1.240073243305171e-05
9.782800030517979e-05
8.68051270313566e-05
8.956084534981241e-05
6.200366216525454e-05
5.098078889143139e-05
4.82250705729756e-05
5.098078889143139e-05
7.02708171206219e-05
5.649222552834297e-05
1.7912169069961946e-05
-4.133577477684346e-06
-1.7912169069963278e-05
-2.8935042343786426e-05
-2.342360570687485e-05
-6.889295796140132e-06
-6.475938048371164e-05
-0.0001198737468528274
-3.720219729915378e-05
-2.066788738841907e-05
-1.7912169069963278e-05
-2.6179324025330647e-05
-1.7912169069963278e-05
-9.64501411459592e-06
-3.720219729915378e-05
-4.8225070572976926e-05
-3.169076066224221e-05
-1.377859159228559e-06
7.578225375753347e-05
0.0001970338597695881
0.00035135408560311223
0.0005938572976272215
0.0009686349889372082
0.0013048326237888143
0.0014591528496223384
0.0012414511024643313
0.0007343989318684667
0.00018876670481422076
-0.00016672095826657574
-0.0003348197756923787
-0.000370644113832304
-0.0002218353246356915
-0.00012538518348973897
-9.507228198672531e-05
-8.956084534981374e-05
-0.00010333943694209268
-9.507228198672531e-05
-0.00010333943694209268
-9.231656366826955e-05
-8.129369039444639e-05
-0.0001171180285343716
-0.0001391637750820179
-0.00013089662012665053
-9.78280003051811e-05
-7.57822537575348e-05
-8.956084534981374e-05
-0.00011436231021591582
-0.00011436231021591582
-7.027081712062322e-05
-8.404940871290214e-05
-0.00010058371862363688
-0.00010333943694209268
-0.00010058371862363688
-0.00010333943694209268
-8.680512703135793e-05
-3.720219729915378e-05
-5.6492225528344285e-05
-0.00011436231021591582
-0.00014743093003738526
-5.6492225528344285e-05
-2.066788738841907e-05
-1.7912169069963278e-05
-4.2713633936065354e-05
-4.2713633936065354e-05
-1.5156450751507488e-05
-1.377859159228559e-06
6.8892957961388014e-06
4.133577477683014e-06
2.6179324025329308e-05
6.475938048371032e-05
7.30265354390777e-05
5.649222552834297e-05
7.02708171206219e-05
0.00010609515526054714
8.68051270313566e-05
0.00014191949340047234
0.0001556980849927513
0.00015845380331120705
0.00016672095826657444
0.00016396523994811866
0.000172232394903486
0.0001832552681773092
0.00018049954985885336
0.00016120952162966288
0.00013365233844510492
0.0001253851834897376
0.00011987374685282605
0.00010609515526054714
8.956084534981241e-05
5.649222552834297e-05
5.649222552834297e-05
4.271363393606403e-05
1.3778591592272275e-06
-3.4446478980697995e-05
-2.066788738841907e-05
-3.169076066224221e-05
-5.9247943846800084e-05
-6.475938048371164e-05
-8.956084534981374e-05
-9.231656366826955e-05
-8.129369039444639e-05
-0.00014743093003738526
-0.00013089662012665053
-9.78280003051811e-05
-9.231656366826955e-05
-7.57822537575348e-05
-3.995791561760957e-05
-5.098078889143272e-05
-7.85379720759906e-05
-6.751509880216745e-05
-6.200366216525588e-05
-8.404940871290214e-05
-7.57822537575348e-05
-8.404940871290214e-05
-0.00011160659189746003
-0.00010885087357900426
-8.129369039444639e-05
-9.78280003051811e-05
-0.00010333943694209268
-0.0001171180285343716
-6.751509880216745e-05
-8.404940871290214e-05
-8.680512703135793e-05
-7.57822537575348e-05
-8.956084534981374e-05
-0.00013089662012665053
-0.0001391637750820179
-7.85379720759906e-05
-7.302653543907902e-05
-7.302653543907902e-05
-6.751509880216745e-05
-7.57822537575348e-05
-7.027081712062322e-05
-8.129369039444639e-05
-8.680512703135793e-05
-5.9247943846800084e-05
-3.4446478980697995e-05
-2.342360570687485e-05
-3.995791561760957e-05
-3.720219729915378e-05
-3.4446478980697995e-05
-4.8225070572976926e-05
-5.9247943846800084e-05
-7.85379720759906e-05
-7.302653543907902e-05
-4.5469352254521147e-05
-3.169076066224221e-05
-1.7912169069963278e-05
-1.7912169069963278e-05
-3.169076066224221e-05
-3.169076066224221e-05
-7.027081712062322e-05
-8.956084534981374e-05
-2.8935042343786426e-05
-4.133577477684346e-06
3.169076066224089e-05
3.444647898069667e-05
3.444647898069667e-05
3.9957915617608246e-05
4.271363393606403e-05
2.066788738841773e-05
6.8892957961388014e-06
4.133577477683014e-06
6.8892957961388014e-06
-1.240073243305171e-05
1.2400732433050376e-05
-1.377859159228559e-06
-2.066788738841907e-05
-8.404940871290214e-05
-8.404940871290214e-05
-3.720219729915378e-05
-3.4446478980697995e-05
-5.098078889143272e-05
-5.6492225528344285e-05
-8.956084534981374e-05
-0.0001198737468528274
-0.00010058371862363688
-7.57822537575348e-05
-6.200366216525588e-05
-5.6492225528344285e-05
-6.200366216525588e-05
-6.751509880216745e-05
-5.3736507209888505e-05
-2.342360570687485e-05
5.9247943846798756e-05
0.00029623971923399637
0.0005139414663920035
0.0008749405661097116
0.0013434126802471958
0.0015693815823605698
0.0014178170748455018
0.0009879250171663987
0.0004340256351567857
-4.2713633936065354e-05
-0.0002631710994125282
-0.0002686825360494398
-0.00021356816968032413
-0.00016672095826657574
-0.00014191949340047367
-0.00014191949340047367
-0.00017223239490348733
-0.00018049954985885472
-0.0001391637750820179
-0.00014743093003738526
-0.00023285819790951464
-0.00022734676127260308
-0.00012814090180819475
-0.0001171180285343716
-0.00010058371862363688
-8.129369039444639e-05
-0.0001226294651712832
-0.0001226294651712832
-9.507228198672531e-05
-8.129369039444639e-05
-8.956084534981374e-05
-0.00010058371862363688
-0.00010333943694209268
-0.00010333943694209268
-9.507228198672531e-05
-0.00011436231021591582
-9.507228198672531e-05
-8.680512703135793e-05
-8.956084534981374e-05
-8.680512703135793e-05
-0.00010333943694209268
-0.00011436231021591582
-7.57822537575348e-05
-5.3736507209888505e-05
-4.133577477684346e-06
6.8892957961388014e-06
1.3778591592272275e-06
-2.066788738841907e-05
-1.7912169069963278e-05
2.3423605706873515e-05
4.271363393606403e-05
2.3423605706873515e-05
1.7912169069961946e-05
4.82250705729756e-05
8.129369039444505e-05
0.00011160659189745871
0.00013089662012664922
0.00013916377508201656
0.00013640805676356078
0.00013640805676356078
0.00015294236667429551
0.00014743093003738393
0.00010609515526054714
9.507228198672396e-05
0.00017774383154039756
0.00018601098649576498
0.0001694766765850302
0.00013640805676356078
0.00011987374685282605
0.00011160659189745871
7.02708171206219e-05
3.9957915617608246e-05
2.8935042343785094e-05
9.64501411459459e-06
-1.377859159228559e-06
-2.066788738841907e-05
-3.169076066224221e-05
-4.5469352254521147e-05
-6.200366216525588e-05
-9.231656366826955e-05
-0.00012814090180819475
-8.404940871290214e-05
-4.8225070572976926e-05
-7.85379720759906e-05
-7.027081712062322e-05
-4.8225070572976926e-05
-2.8935042343786426e-05
-2.342360570687485e-05
-7.027081712062322e-05
-0.00010885087357900426
-8.680512703135793e-05
-5.9247943846800084e-05
-7.302653543907902e-05
-8.404940871290214e-05
-6.751509880216745e-05
-7.85379720759906e-05
-6.751509880216745e-05
-0.00011160659189746003
-0.00014743093003738526
-0.00014743093003738526
-7.57822537575348e-05
-3.4446478980697995e-05
-4.2713633936065354e-05
-6.475938048371164e-05
-7.57822537575348e-05
-6.751509880216745e-05
-3.720219729915378e-05
-3.720219729915378e-05
-6.475938048371164e-05
-6.751509880216745e-05
-3.720219729915378e-05
-3.169076066224221e-05
-5.9247943846800084e-05
-0.00011160659189746003
-0.00011160659189746003
-0.00010885087357900426
-4.2713633936065354e-05
-1.7912169069963278e-05
-2.342360570687485e-05
-1.377859159228559e-06
-9.64501411459592e-06
-1.240073243305171e-05
-2.342360570687485e-05
-3.169076066224221e-05
-3.995791561760957e-05
-3.720219729915378e-05
-2.6179324025330647e-05
-2.6179324025330647e-05
-4.5469352254521147e-05
-3.720219729915378e-05
-4.2713633936065354e-05
-4.133577477684346e-06
6.8892957961388014e-06
-1.240073243305171e-05
-7.027081712062322e-05
-3.4446478980697995e-05
3.9957915617608246e-05
4.271363393606403e-05
3.9957915617608246e-05
4.546935225451981e-05
5.098078889143139e-05
3.720219729915245e-05
3.169076066224089e-05
4.271363393606403e-05
2.8935042343785094e-05
1.7912169069961946e-05
4.133577477683014e-06
1.3778591592272275e-06
-2.342360570687485e-05
-4.8225070572976926e-05
-4.8225070572976926e-05
-5.6492225528344285e-05
-4.5469352254521147e-05
-4.8225070572976926e-05
-0.00010333943694209268
-0.00011436231021591582
-4.8225070572976926e-05
-2.8935042343786426e-05
-3.720219729915378e-05
-4.5469352254521147e-05
-5.9247943846800084e-05
-5.3736507209888505e-05
-4.2713633936065354e-05
-2.6179324025330647e-05
2.8935042343785094e-05
0.00010058371862363556
0.00018601098649576498
0.00032655262073701005
0.0005690558327611192
0.0009107649042496368
0.0012827868772411677
0.0013957713282978553
0.0011505123979552907
0.0006489716639963371
0.00017774383154039756
-0.00012538518348973897
-0.0002686825360494398
-0.00027143825436789566
-0.0002080567330434125
-0.00016396523994811996
-0.0001391637750820179
-0.00010333943694209268
-0.00010333943694209268
-0.00011436231021591582
-0.00011160659189746003
-0.0001391637750820179
-0.0001364080567635621
-0.00012538518348973897
-0.00010609515526054846
-0.00011436231021591582
-0.00014191949340047367
-6.751509880216745e-05
-1.5156450751507488e-05
-1.240073243305171e-05
-2.342360570687485e-05
-7.027081712062322e-05
-7.57822537575348e-05
-4.5469352254521147e-05
-2.342360570687485e-05
-7.302653543907902e-05
-0.00010885087357900426
-6.751509880216745e-05
-3.4446478980697995e-05
-1.7912169069963278e-05
-1.5156450751507488e-05
-4.133577477684346e-06
1.3778591592272275e-06
-3.995791561760957e-05
-3.4446478980697995e-05
4.271363393606403e-05
6.200366216525454e-05
5.373650720988717e-05
4.271363393606403e-05
5.9247943846798756e-05
8.404940871290084e-05
9.507228198672396e-05
0.00010885087357900291
0.00011987374685282605
0.00014191949340047234
0.00014191949340047234
0.00014467521171892812
0.0001694766765850302
0.00020254529640649968
0.00022459104295414594
0.00022459104295414594
0.0002190796063172344
0.00018601098649576498
0.00013089662012664922
0.00019978957808804387
0.00024112535286488067
0.00023010247959105753
0.00020805673304341124
0.00018601098649576498
0.00016672095826657444
0.00014467521171892812
0.00013916377508201656
0.00011987374685282605
9.507228198672396e-05
9.23165636682682e-05
7.853797207598924e-05
4.546935225451981e-05
2.3423605706873515e-05
-6.889295796140132e-06
2.066788738841773e-05
1.7912169069961946e-05
-2.342360570687485e-05
4.133577477683014e-06
-9.64501411459592e-06
1.2400732433050376e-05
3.444647898069667e-05
2.8935042343785094e-05
-1.377859159228559e-06
-6.889295796140132e-06
-9.64501411459592e-06
-4.133577477684346e-06
4.133577477683014e-06
9.64501411459459e-06
1.2400732433050376e-05
-1.240073243305171e-05
-1.7912169069963278e-05
-1.377859159228559e-06
-3.995791561760957e-05
-7.85379720759906e-05
-4.133577477684346e-06
5.373650720988717e-05
5.9247943846798756e-05
4.82250705729756e-05
3.9957915617608246e-05
2.8935042343785094e-05
6.475938048371032e-05
6.200366216525454e-05
5.098078889143139e-05
5.373650720988717e-05
5.649222552834297e-05
7.578225375753347e-05
6.751509880216611e-05
4.546935225451981e-05
3.9957915617608246e-05
-1.240073243305171e-05
2.8935042343785094e-05
0.00010885087357900291
0.00011711802853437029
0.00010609515526054714
0.00011436231021591448
0.00012262946517128183
0.0001253851834897376
0.00011436231021591448
8.129369039444505e-05
8.129369039444505e-05
9.782800030517979e-05
0.0001253851834897376
0.00011711802853437029
9.782800030517979e-05
7.30265354390777e-05
6.751509880216611e-05
5.649222552834297e-05
0.00013916377508201656
0.00018049954985885336
0.00014467521171892812
0.00015018664835583973
0.00015845380331120705
0.0001556980849927513
0.00015294236667429551
0.00015294236667429551
0.00014743093003738393
0.000172232394903486
0.00020805673304341124
0.00018049954985885336
0.00014467521171892812
0.00013916377508201656
0.00010333943694209132
0.00013089662012664922
0.00016120952162966288
0.00014191949340047234
0.00013365233844510492
0.00011711802853437029
0.00011711802853437029
0.0001253851834897376
0.00011436231021591448
8.956084534981241e-05
8.129369039444505e-05
8.404940871290084e-05
8.404940871290084e-05
0.00010333943694209132
0.00010333943694209132
9.23165636682682e-05
8.404940871290084e-05
0.00011711802853437029
0.00023561391622796914
0.0003485983672846564
0.0005001628747997245
0.0006930631570916297
0.0009796578622110316
0.0012386953841458756
0.0012552296940566102
0.0010099707637140451
0.0006103916075379561
0.00020530101472495543
-6.751509880216745e-05
-0.00017498811322194308
-0.000150186648355841
-0.00010058371862363688
-7.85379720759906e-05
-9.231656366826955e-05
6.8892957961388014e-06
7.02708171206219e-05
6.200366216525454e-05
7.30265354390777e-05
8.956084534981241e-05
7.02708171206219e-05
7.578225375753347e-05
9.782800030517979e-05
9.507228198672396e-05
7.30265354390777e-05
5.9247943846798756e-05
6.200366216525454e-05
7.853797207598924e-05
7.853797207598924e-05
5.649222552834297e-05
4.271363393606403e-05
0.00010885087357900291
0.00012814090180819342
0.00013365233844510492
0.00013640805676356078
0.00011160659189745871
7.02708171206219e-05
7.02708171206219e-05
0.00011160659189745871
0.00013089662012664922
0.00011711802853437029
0.00010058371862363556
0.00010058371862363556
0.0001253851834897376
0.00011987374685282605
9.507228198672396e-05
0.00016672095826657444
0.00019978957808804387
0.00020530101472495543
0.0002190796063172344
0.0002218353246356902
0.00022459104295414594
0.00023285819790951333
0.0002493925078202481
0.0002576596627756154
0.00024388107118333642
0.00024112535286488067
0.0002769496910048059
0.00029623971923399637
0.0002549039444571596
0.00026592681773098274
0.0003072625925078196
0.00032379690241855427
0.00032655262073701005
0.0002879725642786291
0.00025214822613870384
0.00024388107118333642
0.00023285819790951333
0.00020805673304341124
0.00019978957808804387
0.00018601098649576498
0.00015018664835583973
0.00014191949340047234
0.00013089662012664922
9.782800030517979e-05
3.9957915617608246e-05
7.853797207598924e-05
0.00011711802853437029
0.00011160659189745871
0.00010333943694209132
8.404940871290084e-05
6.751509880216611e-05
7.30265354390777e-05
8.404940871290084e-05
6.200366216525454e-05
2.8935042343785094e-05
-9.64501411459592e-06
4.133577477683014e-06
5.649222552834297e-05
7.578225375753347e-05
5.098078889143139e-05
4.133577477683014e-06
-5.098078889143272e-05
9.64501411459459e-06
6.751509880216611e-05
5.373650720988717e-05
5.098078889143139e-05
3.444647898069667e-05
4.271363393606403e-05
3.9957915617608246e-05
2.6179324025329308e-05
-1.377859159228559e-06
-4.2713633936065354e-05
-2.6179324025330647e-05
4.133577477683014e-06
1.2400732433050376e-05
2.3423605706873515e-05
9.64501411459459e-06
-6.200366216525588e-05
-2.066788738841907e-05
3.9957915617608246e-05
5.649222552834297e-05
7.30265354390777e-05
6.200366216525454e-05
4.546935225451981e-05
5.098078889143139e-05
4.82250705729756e-05
1.5156450751506162e-05
-6.889295796140132e-06
9.64501411459459e-06
2.066788738841773e-05
2.6179324025329308e-05
2.6179324025329308e-05
2.3423605706873515e-05
6.8892957961388014e-06
-3.169076066224221e-05
-4.133577477684346e-06
2.8935042343785094e-05
5.373650720988717e-05
5.9247943846798756e-05
7.30265354390777e-05
6.751509880216611e-05
2.6179324025329308e-05
4.133577477683014e-06
6.8892957961388014e-06
4.271363393606403e-05
4.82250705729756e-05
5.098078889143139e-05
4.271363393606403e-05
2.8935042343785094e-05
1.2400732433050376e-05
-2.342360570687485e-05
1.5156450751506162e-05
3.9957915617608246e-05
2.6179324025329308e-05
2.8935042343785094e-05
2.8935042343785094e-05
-4.133577477684346e-06
-2.342360570687485e-05
-3.4446478980697995e-05
-4.8225070572976926e-05
-6.751509880216745e-05
-7.85379720759906e-05
-8.404940871290214e-05
-7.302653543907902e-05
-5.9247943846800084e-05
-3.720219729915378e-05
-7.302653543907902e-05
-9.507228198672531e-05
-0.00016947667658503157
-0.00016947667658503157
-5.9247943846800084e-05
1.2400732433050376e-05
8.68051270313566e-05
0.00016120952162966288
0.0002989954375524522
0.0005745672693980309
0.0009328106507972832
0.0012028710460059502
0.0012194053559166852
0.0009576121156633854
0.0005111857480735478
6.200366216525454e-05
-0.0002549039444571609
-0.00040922417029068495
-0.0003899341420614945
-0.0003293083390554673
-0.0003403312123292903
-0.00026592681773098404
-0.00018325526817731047
-0.00020254529640650095
-0.00017498811322194308
-0.00014191949340047367
-0.000150186648355841
-0.0001777438315403989
-0.00018876670481422206
-0.00018049954985885472
-0.00017223239490348733
-0.0001777438315403989
-0.00018601098649576628
-0.0001584538033112084
-0.00016947667658503157
-0.00021356816968032413
-0.00016947667658503157
-0.00018601098649576628
-0.00018601098649576628
-0.00015294236667429682
-0.0001198737468528274
-0.00013089662012665053
-0.00018876670481422206
-0.00024939250782024937
-0.0002108124513618684
-0.0001336523384451063
-0.00012814090180819475
-0.00014467521171892948
-0.00014743093003738526
-0.0001364080567635621
-0.00012814090180819475
-0.00018601098649576628
-0.00017498811322194308
-0.00010609515526054846
-7.57822537575348e-05
-6.475938048371164e-05
-7.302653543907902e-05
-8.956084534981374e-05
-8.956084534981374e-05
-4.5469352254521147e-05
-2.066788738841907e-05
1.3778591592272275e-06
1.2400732433050376e-05
1.3778591592272275e-06
4.133577477683014e-06
3.444647898069667e-05
5.649222552834297e-05
5.098078889143139e-05
1.5156450751506162e-05
-4.8225070572976926e-05
-2.342360570687485e-05
1.5156450751506162e-05
1.3778591592272275e-06
-1.377859159228559e-06
-2.066788738841907e-05
-5.098078889143272e-05
-8.129369039444639e-05
-0.00010058371862363688
-0.00014191949340047367
-0.0001584538033112084
-0.0001612095216296642
-0.00014743093003738526
-0.00016672095826657574
-0.00018601098649576628
-0.00019152242313267784
-0.0002466367895017936
-0.0003045068741893651
-0.00023010247959105888
-0.00023285819790951464
-0.00023836963454642628
-0.0002080567330434125
-0.00021632388799877996
-0.00023561391622797047
-0.0002549039444571609
-0.00027970540932326305
-0.00026592681773098404
-0.00023561391622797047
-0.00023285819790951464
-0.00023010247959105888
-0.0002521482261387052
-0.00025765966277561676
-0.00027419397268635144
-0.00030726259250782084
-0.00026592681773098404
-0.0002521482261387052
-0.00022459104295414727
-0.0002218353246356915
-0.0002549039444571609
-0.00024939250782024937
-0.00024112535286488197
-0.00024388107118333775
-0.00024388107118333775
-0.0002604153810940725
-0.0002824611276417188
-0.0002549039444571609
-0.00021356816968032413
-0.00020530101472495681
-0.0002466367895017936
-0.00029072828259708617
-0.0002549039444571609
-0.0002080567330434125
-0.00018601098649576628
-0.00018876670481422206
-0.0001997895780880452
-0.00020530101472495681
-0.00018601098649576628
-0.0001612095216296642
-0.00018325526817731047
-0.00022734676127260308
-0.0002549039444571609
-0.00023836963454642628
-0.00021632388799877996
-0.0002108124513618684
-0.00020254529640650095
-0.00020254529640650095
-0.0002108124513618684
-0.00027694969100480727
-0.00027143825436789566
-0.0001777438315403989
-0.00014743093003738526
-0.00014743093003738526
-0.0001584538033112084
-0.00015294236667429682
-0.00014467521171892948
-0.00016396523994811996
-0.00018049954985885472
-0.00017498811322194308
-0.00016947667658503157
-0.00017223239490348733
-0.00018876670481422206
-0.00020254529640650095
-0.00019427814145113364
-0.0002218353246356915
-0.00024388107118333775
-0.00018601098649576628
-0.00019152242313267784
-0.00021356816968032413
-0.0002108124513618684
-0.00023285819790951464
-0.00027970540932326305
-0.0002824611276417188
-0.00027143825436789566
-0.0002686825360494398
-0.0002852168459601746
-0.0002962397192339978
-0.0003045068741893651
-0.0003127740291447324
-0.0002824611276417188
-0.00020254529640650095
-0.00015294236667429682
-4.8225070572976926e-05
7.02708171206219e-05
0.0002741939726863501
0.0005883458609903097
0.0009438335240711064
0.0011835810177767598
0.0011229552147707324
0.0007592003967345686
0.0002135681696803228
-0.00026592681773098404
-0.0004946514381628143
-0.0005359872129396513
-0.00048087284657053543
-0.0004202470435645082
-0.00035410980392156926
-0.0003458426489662019
-0.0003954455786984061
-0.00043953707179369863
-0.0003403312123292903
-0.00029348400091554195
-0.0002989954375524536
-0.0003155297474631883
-0.00035410980392156926
-0.0003375754940108345
-0.0003155297474631883
-0.0003513540856031135
-0.0003596212405584808
-0.0003210411841000998
-0.00029072828259708617
-0.0002824611276417188
-0.00028797256427863044
-0.00031828546578164407
-0.0003293083390554673
-0.00032379690241855563
-0.00032655262073701135
-0.00036788839551384826
-0.00031828546578164407
-0.0002604153810940725
-0.0002521482261387052
-0.00022459104295414727
-0.00023836963454642628
-0.00027419397268635144
-0.00029072828259708617
-0.00030175115587090934
-0.00026592681773098404
-0.00023285819790951464
-0.00024939250782024937
-0.00023285819790951464
-0.0002080567330434125
-0.00017498811322194308
-0.00017498811322194308
-0.00020254529640650095
-0.00019152242313267784
-0.00020254529640650095
-0.00015569808499275262
-4.2713633936065354e-05
-1.7912169069963278e-05
-6.751509880216745e-05
-6.475938048371164e-05
-5.6492225528344285e-05
-4.5469352254521147e-05
-4.8225070572976926e-05
-3.4446478980697995e-05
-2.8935042343786426e-05
-3.169076066224221e-05
-3.169076066224221e-05
-5.6492225528344285e-05
-8.404940871290214e-05
-0.0001198737468528274
-0.00018601098649576628
-0.00019703385976958942
-0.0001391637750820179
-0.00014467521171892948
-0.00017498811322194308
-0.00019703385976958942
-0.0002080567330434125
-0.00024388107118333775
-0.00024939250782024937
-0.0002604153810940725
-0.00027970540932326305
-0.00027970540932326305
-0.0002962397192339978
-0.0003155297474631883
-0.0003045068741893651
-0.00027143825436789566
-0.00027143825436789566
-0.0002852168459601746
-0.0003375754940108345
-0.00035410980392156926
-0.00028797256427863044
-0.00027694969100480727
-0.00026592681773098404
-0.00027419397268635144
-0.0002631710994125282
-0.00029072828259708617
-0.0002989954375524536
-0.00027419397268635144
-0.0002852168459601746
-0.00030175115587090934
-0.0003045068741893651
-0.00030726259250782084
-0.00029348400091554195
-0.0002852168459601746
-0.0003403312123292903
-0.00035410980392156926
-0.00026592681773098404
-0.00024112535286488197
-0.0002604153810940725
-0.00027694969100480727
-0.0002604153810940725
-0.0002549039444571609
-0.00024388107118333775
-0.0002218353246356915
-0.00024388107118333775
-0.0002549039444571609
-0.0002521482261387052
-0.00024112535286488197
-0.0002604153810940725
-0.00024939250782024937
-0.00023836963454642628
-0.00025765966277561676
-0.00029348400091554195
-0.00024112535286488197
-0.0002218353246356915
-0.00021632388799877996
-0.0002190796063172357
-0.00018325526817731047
-0.00017223239490348733
-0.00017498811322194308
-0.00019152242313267784
-0.00018601098649576628
-0.00019427814145113364
-0.00018601098649576628
-0.00020254529640650095
-0.00022734676127260308
-0.00021632388799877996
-0.00024112535286488197
-0.0001997895780880452
-0.0001391637750820179
-0.000150186648355841
-0.00015294236667429682
-0.0001584538033112084
-0.00016396523994811996
-0.00016396523994811996
-0.00016947667658503157
-0.00018049954985885472
-0.00017498811322194308
-0.00017223239490348733
-0.0002108124513618684
-0.0002521482261387052
-0.0002824611276417188
-0.00027143825436789566
-0.00023836963454642628
-0.00030175115587090934
-0.0003348197756923787
-0.0002631710994125282
-0.0002108124513618684
-0.0002108124513618684
-0.00024112535286488197
-0.00024388107118333775
-0.00022734676127260308
-0.00023561391622797047
-0.00024388107118333775
-0.0002108124513618684
-0.00014191949340047367
-3.720219729915378e-05
0.00012262946517128183
0.00037064411383230263
0.0007371546501869223
0.0010457951018539703
0.001178069581139848
0.0010457951018539703
0.0006186587624933234
0.00010609515526054714
-0.00028797256427863044
-0.0004698499732967123
-0.00048638428320744705
-0.0004422927901121546
-0.00037891126878767127
-0.0003430869306477461
-0.0003348197756923787
-0.0002989954375524536
-0.0002686825360494398
-0.0002631710994125282
-0.0003320640573739229
-0.0004257584802014197
-0.00037615555046921565
-0.0002604153810940725
-0.0002604153810940725
-0.00029348400091554195
-0.00029072828259708617
-0.00026592681773098404
-0.00025765966277561676
-0.00025765966277561676
-0.00028797256427863044
-0.00031828546578164407
-0.0002962397192339978
-0.00027419397268635144
-0.0002604153810940725
-0.0002686825360494398
-0.0003045068741893651
-0.00032379690241855563
-0.00021632388799877996
-0.00017223239490348733
-0.0001997895780880452
-0.0002218353246356915
-0.00023010247959105888
-0.00022734676127260308
-0.0002080567330434125
-0.0002080567330434125
-0.00021632388799877996
-0.0002108124513618684
-0.00019152242313267784
-0.00017498811322194308
-0.0001391637750820179
-0.00014191949340047367
-0.00015294236667429682
-7.302653543907902e-05
-3.4446478980697995e-05
-2.342360570687485e-05
-2.066788738841907e-05
-2.066788738841907e-05
9.64501411459459e-06
2.3423605706873515e-05
4.133577477683014e-06
-9.64501411459592e-06
-2.342360570687485e-05
-4.133577477684346e-06
-4.133577477684346e-06
-9.64501411459592e-06
-2.8935042343786426e-05
-6.751509880216745e-05
-6.200366216525588e-05
-6.200366216525588e-05
-8.956084534981374e-05
-0.00014191949340047367
-0.00012538518348973897
-0.0001391637750820179
-0.00014743093003738526
-0.0001584538033112084
-0.00018876670481422206
-0.0002108124513618684
-0.00022734676127260308
-0.00024112535286488197
-0.0002218353246356915
-0.0002190796063172357
-0.0002466367895017936
-0.0002466367895017936
-0.00024388107118333775
-0.0002686825360494398
-0.0002604153810940725
-0.00021632388799877996
-0.00027694969100480727
-0.0002824611276417188
-0.00021356816968032413
-0.00023010247959105888
-0.00027419397268635144
-0.0002631710994125282
-0.00024388107118333775
-0.00023285819790951464
-0.00022459104295414727
-0.00024939250782024937
-0.0002604153810940725
-0.00023010247959105888
-0.00022459104295414727
-0.00023836963454642628
-0.0002549039444571609
-0.00025765966277561676
-0.0002190796063172357
-0.0001997895780880452
-0.0002466367895017936
-0.00024939250782024937
-0.00020254529640650095
-0.0002080567330434125
-0.00020530101472495681
-0.00018325526817731047
-0.00018601098649576628
-0.00021356816968032413
-0.00021632388799877996
-0.00018876670481422206
-0.00018876670481422206
-0.00018876670481422206
-0.00019427814145113364
-0.00019703385976958942
-0.00016672095826657574
-0.00018876670481422206
-0.00023285819790951464
-0.0002218353246356915
-0.00019703385976958942
-0.00017223239490348733
-0.00015569808499275262
-0.0001584538033112084
-0.0002218353246356915
-0.00022459104295414727
-0.0001364080567635621
-0.00010885087357900426
-0.0001171180285343716
-0.00013089662012665053
-0.0001391637750820179
-0.00014191949340047367
-0.0001226294651712832
-0.0001364080567635621
-0.00013089662012665053
-0.00014191949340047367
-0.00014191949340047367
-0.00011436231021591582
-0.00010885087357900426
-0.00015294236667429682
-0.00019427814145113364
-0.00017223239490348733
-0.00011160659189746003
-0.00010333943694209268
-0.0001777438315403989
-0.00025765966277561676
-0.00022734676127260308
-0.00020254529640650095
-0.0001777438315403989
-0.00019427814145113364
-0.00021632388799877996
-0.0002190796063172357
-0.0002218353246356915
-0.00023010247959105888
-0.00024112535286488197
-0.00022459104295414727
-0.00022459104295414727
-0.00024388107118333775
-0.0001336523384451063
-6.751509880216745e-05
-2.342360570687485e-05
7.30265354390777e-05
0.0002852168459601733
0.000637948790722514
0.0010127264820325008
0.0011560238345922017
0.0009961921721217662
0.0006159030441748677
0.00014467521171892812
-0.00026592681773098404
-0.0004615828183413449
-0.000500162874799726
-0.00048362856488899143
-0.00044504850843061025
-0.00030726259250782084
-0.00024939250782024937
-0.0002549039444571609
-0.00027970540932326305
-0.00027970540932326305
-0.00027419397268635144
-0.00030175115587090934
-0.00029348400091554195
-0.00029348400091554195
-0.00030175115587090934
-0.0002824611276417188
-0.00028797256427863044
-0.00030726259250782084
-0.0003458426489662019
-0.0002824611276417188
-0.0002218353246356915
