-0.00021356816968032413
-0.00023010247959105888
-0.00021356816968032413
-0.00019427814145113364
-0.00019427814145113364
-0.00020254529640650095
-0.0002190796063172357
-0.00021632388799877996
-0.0002218353246356915
-0.00020530101472495681
-0.00018049954985885472
-0.00018325526817731047
-0.00018601098649576628
-0.00016396523994811996
-0.00015294236667429682
-0.00014743093003738526
-0.0001391637750820179
-0.0001391637750820179
-0.00011160659189746003
-9.231656366826955e-05
-8.680512703135793e-05
-8.956084534981374e-05
-7.85379720759906e-05
-4.5469352254521147e-05
-1.7912169069963278e-05
-1.240073243305171e-05
-1.377859159228559e-06
9.64501411459459e-06
1.2400732433050376e-05
3.444647898069667e-05
3.720219729915245e-05
2.3423605706873515e-05
1.2400732433050376e-05
1.5156450751506162e-05
1.7912169069961946e-05
2.6179324025329308e-05
1.5156450751506162e-05
-9.64501411459592e-06
-1.5156450751507488e-05
-1.7912169069963278e-05
-2.066788738841907e-05
-3.995791561760957e-05
-8.956084534981374e-05
-0.00010885087357900426
-0.00010885087357900426
-0.0001198737468528274
-0.0001364080567635621
-0.0001584538033112084
-0.0001777438315403989
-0.00017223239490348733
-0.00016672095826657574
-0.0002190796063172357
-0.0002218353246356915
-0.0002108124513618684
-0.00019427814145113364
-0.00019703385976958942
-0.00021356816968032413
-0.00021356816968032413
-0.00020530101472495681
-0.00019152242313267784
-0.00019427814145113364
-0.0002218353246356915
-0.00021632388799877996
-0.00021632388799877996
-0.00020254529640650095
-0.0001997895780880452
-0.0002080567330434125
-0.00021632388799877996
-0.00022734676127260308
-0.0002218353246356915
-0.0002080567330434125
-0.00020530101472495681
-0.0002080567330434125
-0.0002080567330434125
-0.00021632388799877996
-0.0002108124513618684
-0.00021356816968032413
-0.00021632388799877996
-0.00023561391622797047
-0.00022734676127260308
-0.00019152242313267784
-0.00016672095826657574
-0.00018049954985885472
-0.00019703385976958942
-0.00019427814145113364
-0.00016672095826657574
-0.0001584538033112084
-0.0001612095216296642
-0.00016672095826657574
-0.00016947667658503157
-0.0001612095216296642
-0.00014743093003738526
-0.00014191949340047367
-0.00015569808499275262
-0.00015294236667429682
-0.00015294236667429682
-0.0001364080567635621
-0.0001364080567635621
-0.0001584538033112084
-0.00016947667658503157
-0.00015569808499275262
-0.0001364080567635621
-0.00013089662012665053
-0.0001584538033112084
-0.00017223239490348733
-0.00014467521171892948
-0.00012814090180819475
-0.00014467521171892948
-0.0001584538033112084
-0.000150186648355841
-0.0001364080567635621
-0.0001226294651712832
-0.00012538518348973897
-0.0001336523384451063
-0.0001336523384451063
-0.00011160659189746003
-0.00010333943694209268
-0.00010609515526054846
-0.0001171180285343716
-0.00011160659189746003
-9.78280003051811e-05
-8.680512703135793e-05
-0.00010885087357900426
-0.0001198737468528274
-0.00012814090180819475
-0.00010609515526054846
-0.00010609515526054846
-0.0001364080567635621
-0.00015294236667429682
-0.0001777438315403989
-0.00018049954985885472
-0.00016672095826657574
-0.00018049954985885472
-0.00019427814145113364
-0.00019703385976958942
-0.00019427814145113364
-0.00016947667658503157
-0.0001584538033112084
-0.0001777438315403989
-0.00018876670481422206
-0.00018049954985885472
-0.00018601098649576628
-0.0001612095216296642
-0.0001391637750820179
-9.231656366826955e-05
-4.133577477684346e-06
0.00012262946517128183
0.000301751155870908
0.0005690558327611192
0.0008776962844281674
0.0010623294117647053
0.000960367833981841
0.0006462159456778814
0.0002190796063172344
-0.0001612095216296642
-0.0003816669871061273
-0.00045055994506752175
-0.0004147356069275966
-0.0003596212405584808
-0.0003403312123292903
-0.0003210411841000998
-0.0002686825360494398
-0.00022459104295414727
-0.0002218353246356915
-0.00023285819790951464
-0.00023836963454642628
-0.00021632388799877996
-0.00020254529640650095
-0.00019703385976958942
-0.00020254529640650095
-0.0002218353246356915
-0.00021356816968032413
-0.00019152242313267784
-0.00018325526817731047
-0.00018325526817731047
-0.00019152242313267784
-0.00021632388799877996
-0.0001997895780880452
-0.00018325526817731047
-0.00018325526817731047
-0.00018876670481422206
-0.00018876670481422206
-0.0001777438315403989
-0.00018601098649576628
-0.00018325526817731047
-0.00017498811322194308
-0.00016947667658503157
-0.0001391637750820179
-0.0001226294651712832
-0.00012538518348973897
-0.0001364080567635621
-0.0001226294651712832
-8.680512703135793e-05
-8.680512703135793e-05
-8.404940871290214e-05
-8.129369039444639e-05
-5.9247943846800084e-05
-2.342360570687485e-05
-1.377859159228559e-06
6.8892957961388014e-06
-1.5156450751507488e-05
1.3778591592272275e-06
5.098078889143139e-05
6.200366216525454e-05
4.82250705729756e-05
4.546935225451981e-05
5.649222552834297e-05
7.02708171206219e-05
6.200366216525454e-05
5.098078889143139e-05
1.7912169069961946e-05
1.7912169069961946e-05
1.5156450751506162e-05
9.64501411459459e-06
-2.066788738841907e-05
-5.6492225528344285e-05
-7.302653543907902e-05
-7.302653543907902e-05
-7.57822537575348e-05
-7.85379720759906e-05
-0.00011160659189746003
-0.00014467521171892948
-0.0001391637750820179
-0.00013089662012665053
-0.00014191949340047367
-0.0001612095216296642
-0.00018049954985885472
-0.00018876670481422206
-0.00017223239490348733
-0.0001612095216296642
-0.00017498811322194308
-0.0001777438315403989
-0.00017223239490348733
-0.0001584538033112084
-0.00016396523994811996
-0.0001777438315403989
-0.00019427814145113364
-0.00018325526817731047
-0.00017498811322194308
-0.00016672095826657574
-0.00016947667658503157
-0.00018325526817731047
-0.00019703385976958942
-0.00018876670481422206
-0.00018601098649576628
-0.0002190796063172357
-0.00019152242313267784
-0.00017498811322194308
-0.00017223239490348733
-0.00016672095826657574
-0.00017223239490348733
-0.00019152242313267784
-0.00018601098649576628
-0.000150186648355841
-0.00014743093003738526
-0.00017498811322194308
-0.00018876670481422206
-0.0001777438315403989
-0.00015294236667429682
-0.00014743093003738526
-0.0001584538033112084
-0.00016396523994811996
-0.00014467521171892948
-0.0001364080567635621
-0.0001226294651712832
-0.0001198737468528274
-0.00014191949340047367
-0.00015294236667429682
-0.00014191949340047367
-0.0001198737468528274
-0.00011160659189746003
-0.0001364080567635621
-0.00014191949340047367
-0.00012814090180819475
-0.0001364080567635621
-0.0001391637750820179
-0.00014743093003738526
-0.00015569808499275262
-0.00014467521171892948
-0.0001226294651712832
-0.00010885087357900426
-0.0001198737468528274
-0.0001336523384451063
-0.0001198737468528274
-0.00010333943694209268
-0.00010333943694209268
-0.00011436231021591582
-0.00011436231021591582
-0.00010333943694209268
-8.680512703135793e-05
-9.507228198672531e-05
-0.00010333943694209268
-0.00011160659189746003
-0.00011436231021591582
-0.00010058371862363688
-8.129369039444639e-05
-8.404940871290214e-05
-0.00010609515526054846
-0.00011160659189746003
-0.00010609515526054846
-0.00010058371862363688
-0.00011160659189746003
-0.00014191949340047367
-0.00015294236667429682
-0.00016947667658503157
-0.00015294236667429682
-0.00014191949340047367
-0.00016947667658503157
-0.00018049954985885472
-0.00018049954985885472
-0.0001391637750820179
-0.00014743093003738526
-0.00017498811322194308
-0.00018876670481422206
-0.00018601098649576628
-0.0001777438315403989
-0.00017223239490348733
-0.00013089662012665053
-6.200366216525588e-05
5.098078889143139e-05
0.0001970338597695881
0.0004064684519722279
0.0007206203402761877
0.0010623294117647053
0.001257985412375066
0.0011312223697260999
0.0007288874952315547
0.0002190796063172344
-0.00020530101472495681
-0.00040371273365377345
-0.0004147356069275966
-0.0003816669871061273
-0.00036237695887693665
-0.0003320640573739229
-0.00027143825436789566
-0.00021632388799877996
-0.00021356816968032413
-0.00023285819790951464
-0.00023285819790951464
-0.00019703385976958942
-0.0002190796063172357
-0.00022459104295414727
-0.00021356816968032413
-0.0002108124513618684
-0.00021356816968032413
-0.00019703385976958942
-0.0001777438315403989
-0.00018601098649576628
-0.00020254529640650095
-0.00020530101472495681
-0.00019427814145113364
-0.00019703385976958942
-0.00020530101472495681
-0.0002108124513618684
-0.0002080567330434125
-0.00019427814145113364
-0.00016947667658503157
-0.00016672095826657574
-0.00016396523994811996
-0.0001612095216296642
-0.00017498811322194308
-0.00014467521171892948
-0.00013089662012665053
-0.00014191949340047367
-0.0001391637750820179
-0.00012814090180819475
-0.00011160659189746003
-0.00010058371862363688
-8.129369039444639e-05
-7.302653543907902e-05
-7.027081712062322e-05
-3.995791561760957e-05
9.64501411459459e-06
1.5156450751506162e-05
1.2400732433050376e-05
6.475938048371032e-05
7.853797207598924e-05
8.129369039444505e-05
8.404940871290084e-05
7.02708171206219e-05
7.02708171206219e-05
6.751509880216611e-05
5.373650720988717e-05
4.546935225451981e-05
3.169076066224089e-05
2.8935042343785094e-05
3.169076066224089e-05
1.2400732433050376e-05
-2.066788738841907e-05
-3.169076066224221e-05
-3.4446478980697995e-05
-3.4446478980697995e-05
-5.6492225528344285e-05
-9.231656366826955e-05
-0.00011436231021591582
-0.0001336523384451063
-0.00012538518348973897
-0.00013089662012665053
-0.0001612095216296642
-0.00017498811322194308
-0.00018049954985885472
-0.0001584538033112084
-0.00016947667658503157
-0.00017223239490348733
-0.00016396523994811996
-0.00018049954985885472
-0.00016947667658503157
-0.00016396523994811996
-0.00018049954985885472
-0.00019427814145113364
-0.00018049954985885472
-0.0001777438315403989
-0.0001777438315403989
-0.00018876670481422206
-0.00019427814145113364
-0.00020254529640650095
-0.0001997895780880452
-0.00016672095826657574
-0.00016672095826657574
-0.00019152242313267784
-0.00018601098649576628
-0.00019703385976958942
-0.0001777438315403989
-0.00015569808499275262
-0.00017223239490348733
-0.00018876670481422206
-0.00018325526817731047
-0.00017223239490348733
-0.0001777438315403989
-0.00020254529640650095
-0.00021632388799877996
-0.0002108124513618684
-0.00018876670481422206
-0.0001584538033112084
-0.000150186648355841
-0.00016396523994811996
-0.0001777438315403989
-0.0001612095216296642
-0.0001584538033112084
-0.0001777438315403989
-0.00016947667658503157
-0.00015294236667429682
-0.00014743093003738526
-0.000150186648355841
-0.0001584538033112084
-0.00016672095826657574
-0.00018049954985885472
-0.0001584538033112084
-0.0001391637750820179
-0.00015294236667429682
-0.00016672095826657574
-0.0001612095216296642
-0.0001336523384451063
-0.00013089662012665053
-0.00012538518348973897
-0.00012814090180819475
-0.00013089662012665053
-0.00013089662012665053
-0.0001198737468528274
-0.00010333943694209268
-0.00011436231021591582
-0.00010885087357900426
-0.00010333943694209268
-9.507228198672531e-05
-8.680512703135793e-05
-0.00010058371862363688
-0.00011160659189746003
-9.78280003051811e-05
-8.956084534981374e-05
-8.404940871290214e-05
-8.956084534981374e-05
-9.507228198672531e-05
-0.00010609515526054846
-0.00010609515526054846
-9.507228198672531e-05
-0.00011436231021591582
-0.000150186648355841
-0.00015569808499275262
-0.0001336523384451063
-0.00012814090180819475
-0.0001584538033112084
-0.00018049954985885472
-0.00017223239490348733
-0.00016672095826657574
-0.00017498811322194308
-0.0001777438315403989
-0.00018601098649576628
-0.00018601098649576628
-0.0001612095216296642
-0.00014743093003738526
-0.00016396523994811996
-0.00015569808499275262
-0.00010609515526054846
-3.4446478980697995e-05
8.129369039444505e-05
0.0002383696345464249
0.0004781171282520784
0.0008198261997405958
0.0011863367360952157
0.001318611215381093
0.0011064209048599978
0.0006737731288624392
0.0001694766765850302
-0.00021632388799877996
-0.0004202470435645082
-0.0003844227054245829
-0.0003403312123292903
-0.0002852168459601746
-0.00023285819790951464
-0.0002108124513618684
-0.00023010247959105888
-0.0002549039444571609
-0.00024112535286488197
-0.00020254529640650095
-0.00019152242313267784
-0.0002080567330434125
-0.00021632388799877996
-0.0002108124513618684
-0.00018325526817731047
-0.00017223239490348733
-0.00017498811322194308
-0.00018049954985885472
-0.0001777438315403989
-0.0001777438315403989
-0.00016947667658503157
-0.00016947667658503157
-0.00018049954985885472
-0.00019152242313267784
-0.0001777438315403989
-0.00016672095826657574
-0.00014743093003738526
-0.0001584538033112084
-0.00017223239490348733
-0.00015569808499275262
-0.00014467521171892948
-0.00013089662012665053
-0.00012814090180819475
-0.00014743093003738526
-0.0001391637750820179
-9.78280003051811e-05
-8.680512703135793e-05
-8.680512703135793e-05
-8.680512703135793e-05
-7.57822537575348e-05
-4.5469352254521147e-05
-9.64501411459592e-06
4.133577477683014e-06
-6.889295796140132e-06
1.2400732433050376e-05
5.649222552834297e-05
6.751509880216611e-05
7.02708171206219e-05
7.578225375753347e-05
7.30265354390777e-05
8.404940871290084e-05
0.00010885087357900291
8.404940871290084e-05
4.546935225451981e-05
4.271363393606403e-05
5.098078889143139e-05
5.098078889143139e-05
3.444647898069667e-05
2.6179324025329308e-05
-1.7912169069963278e-05
-3.995791561760957e-05
-2.6179324025330647e-05
-4.2713633936065354e-05
-7.57822537575348e-05
-0.00011160659189746003
-0.0001171180285343716
-0.00012814090180819475
-0.0001584538033112084
-0.0001777438315403989
-0.00017498811322194308
-0.00016947667658503157
-0.00016947667658503157
-0.00018049954985885472
-0.00018325526817731047
-0.00019152242313267784
-0.00017498811322194308
-0.0001612095216296642
-0.0001777438315403989
-0.0002108124513618684
-0.00021632388799877996
-0.00018876670481422206
-0.00017223239490348733
-0.0001777438315403989
-0.00019152242313267784
-0.00019703385976958942
-0.00018601098649576628
-0.0001777438315403989
-0.00017223239490348733
-0.0001777438315403989
-0.00020254529640650095
-0.00020254529640650095
-0.00017498811322194308
-0.00018601098649576628
-0.00018876670481422206
-0.00020530101472495681
-0.00021632388799877996
-0.00018876670481422206
-0.00018601098649576628
-0.00019703385976958942
-0.00020254529640650095
-0.00018325526817731047
-0.00017223239490348733
-0.00017223239490348733
-0.00018601098649576628
-0.00019703385976958942
-0.00020254529640650095
-0.00018325526817731047
-0.00015294236667429682
-0.00014743093003738526
-0.00016947667658503157
-0.00017498811322194308
-0.00018049954985885472
-0.00014743093003738526
-0.0001364080567635621
-0.00015294236667429682
-0.00016672095826657574
-0.00015569808499275262
-0.00014467521171892948
-0.0001391637750820179
-0.0001612095216296642
-0.00018601098649576628
-0.00017498811322194308
-0.000150186648355841
-0.00014191949340047367
-0.00015294236667429682
-0.00016947667658503157
-0.00016396523994811996
-0.00014467521171892948
-0.0001336523384451063
-0.0001336523384451063
-0.0001364080567635621
-0.00012814090180819475
-0.0001198737468528274
-0.0001198737468528274
-0.00014467521171892948
-0.0001391637750820179
-0.00011436231021591582
-9.231656366826955e-05
-9.231656366826955e-05
-0.00010609515526054846
-0.00012814090180819475
-0.0001226294651712832
-0.00011160659189746003
-0.0001198737468528274
-0.00012814090180819475
-0.0001198737468528274
-0.0001198737468528274
-0.0001226294651712832
-0.00014467521171892948
-0.00017223239490348733
-0.00019703385976958942
-0.00018601098649576628
-0.0001612095216296642
-0.00016396523994811996
-0.00018325526817731047
-0.0001997895780880452
-0.00017498811322194308
-0.00018876670481422206
-0.00019152242313267784
-0.00018325526817731047
-0.00019703385976958942
-0.0001997895780880452
-0.00018325526817731047
-0.00016396523994811996
-0.0001336523384451063
-9.507228198672531e-05
-1.5156450751507488e-05
0.00011711802853437029
0.00029072828259708476
0.0005663001144426635
0.000896986312657358
0.0011229552147707324
0.0010623294117647053
0.0007592003967345686
0.0003430869306477448
-7.85379720759906e-05
-0.0003568655222400251
-0.00046709425497825643
-0.00040922417029068495
-0.0003513540856031135
-0.0003375754940108345
-0.0003045068741893651
-0.00026592681773098404
-0.00021356816968032413
-0.00020530101472495681
-0.0002190796063172357
-0.00024112535286488197
-0.00023561391622797047
-0.0002108124513618684
-0.00019427814145113364
-0.00019427814145113364
-0.00020254529640650095
-0.0002190796063172357
-0.0002190796063172357
-0.00020254529640650095
-0.00019703385976958942
-0.00021356816968032413
-0.00020530101472495681
-0.00017498811322194308
-0.00017498811322194308
-0.00019152242313267784
-0.00018876670481422206
-0.00018325526817731047
-0.00017498811322194308
-0.00017223239490348733
-0.0001584538033112084
-0.00015294236667429682
-0.00014743093003738526
-0.00012814090180819475
-0.00012538518348973897
-0.0001336523384451063
-0.00013089662012665053
-0.00011160659189746003
-8.129369039444639e-05
-5.9247943846800084e-05
-6.200366216525588e-05
-5.3736507209888505e-05
-5.6492225528344285e-05
-3.4446478980697995e-05
-1.5156450751507488e-05
-4.133577477684346e-06
4.133577477683014e-06
2.066788738841773e-05
4.82250705729756e-05
6.475938048371032e-05
6.475938048371032e-05
5.649222552834297e-05
5.098078889143139e-05
3.444647898069667e-05
3.169076066224089e-05
4.546935225451981e-05
4.271363393606403e-05
2.066788738841773e-05
2.066788738841773e-05
2.3423605706873515e-05
4.133577477683014e-06
-4.2713633936065354e-05
-7.57822537575348e-05
-8.129369039444639e-05
-7.57822537575348e-05
-8.956084534981374e-05
-0.00010058371862363688
-0.0001226294651712832
-0.000150186648355841
-0.00015569808499275262
-0.00015569808499275262
-0.00015294236667429682
-0.00017223239490348733
-0.0001777438315403989
-0.0001584538033112084
-0.00015569808499275262
-0.0001777438315403989
-0.00020254529640650095
-0.00020530101472495681
-0.00019152242313267784
-0.00016947667658503157
-0.00018325526817731047
-0.0001997895780880452
-0.00020254529640650095
-0.00016396523994811996
-0.0001612095216296642
-0.00017498811322194308
-0.0001997895780880452
-0.0002190796063172357
-0.00020530101472495681
-0.00018601098649576628
-0.00019152242313267784
-0.00021356816968032413
-0.0002108124513618684
-0.00018325526817731047
-0.00018049954985885472
-0.00018601098649576628
-0.00018876670481422206
-0.00018601098649576628
-0.00018325526817731047
-0.00018601098649576628
-0.0001997895780880452
-0.00020254529640650095
-0.00018325526817731047
-0.00017223239490348733
-0.00015294236667429682
-0.0001391637750820179
-0.00015294236667429682
-0.00016947667658503157
-0.00015294236667429682
-0.0001364080567635621
-0.0001336523384451063
-0.00012814090180819475
-0.00014743093003738526
-0.00014467521171892948
-0.0001391637750820179
-0.00012538518348973897
-0.0001226294651712832
-0.00014467521171892948
-0.0001391637750820179
-0.00012814090180819475
-0.00011436231021591582
-0.0001171180285343716
-0.0001336523384451063
-0.0001364080567635621
-0.0001364080567635621
-0.00011436231021591582
-0.00011160659189746003
-0.0001226294651712832
-0.00012538518348973897
-9.78280003051811e-05
-8.956084534981374e-05
-8.956084534981374e-05
-0.00011160659189746003
-0.0001226294651712832
-0.00010609515526054846
-8.129369039444639e-05
-5.9247943846800084e-05
-8.404940871290214e-05
-0.0001171180285343716
-0.0001198737468528274
-8.404940871290214e-05
-7.027081712062322e-05
-9.507228198672531e-05
-0.00010058371862363688
-0.00010058371862363688
-0.00010609515526054846
-0.0001364080567635621
-0.0001612095216296642
-0.0001612095216296642
-0.000150186648355841
-0.000150186648355841
-0.00017498811322194308
-0.0001997895780880452
-0.0002080567330434125
-0.00018876670481422206
-0.00014743093003738526
-0.00016396523994811996
-0.00018049954985885472
-0.00019427814145113364
-0.00018325526817731047
-0.0001584538033112084
-0.0001198737468528274
-8.129369039444639e-05
-2.342360570687485e-05
8.404940871290084e-05
0.000263171099412527
0.0005249643396658268
0.000806047608148317
0.0010237493553063243
0.0010017036087586776
0.0007371546501869223
0.0003430869306477448
-6.200366216525588e-05
-0.0003348197756923787
-0.00045331566338597764
-0.000423002761882964
-0.0003458426489662019
-0.0003100183108262768
-0.0002989954375524536
-0.00027694969100480727
-0.00023836963454642628
-0.00019152242313267784
-0.00018876670481422206
-0.00019427814145113364
-0.0001997895780880452
-0.00018601098649576628
-0.0001777438315403989
-0.00017498811322194308
-0.00018049954985885472
-0.0001997895780880452
-0.0001777438315403989
-0.0001584538033112084
-0.0001612095216296642
-0.00017223239490348733
-0.00019152242313267784
-0.00017498811322194308
-0.00016396523994811996
-0.00015294236667429682
-0.000150186648355841
-0.00017498811322194308
-0.0001777438315403989
-0.00014743093003738526
-0.00014191949340047367
-0.00014191949340047367
-0.00015294236667429682
-0.00015294236667429682
-0.0001226294651712832
-0.00010333943694209268
-0.00011160659189746003
-0.00010885087357900426
-0.00010333943694209268
-8.680512703135793e-05
-7.027081712062322e-05
-5.3736507209888505e-05
-6.200366216525588e-05
-3.4446478980697995e-05
6.8892957961388014e-06
3.9957915617608246e-05
4.271363393606403e-05
3.720219729915245e-05
4.271363393606403e-05
6.200366216525454e-05
7.02708171206219e-05
6.475938048371032e-05
5.9247943846798756e-05
5.9247943846798756e-05
6.751509880216611e-05
7.02708171206219e-05
6.475938048371032e-05
5.098078889143139e-05
2.3423605706873515e-05
2.6179324025329308e-05
1.5156450751506162e-05
-1.240073243305171e-05
-2.8935042343786426e-05
-5.6492225528344285e-05
-9.231656366826955e-05
-7.85379720759906e-05
-9.507228198672531e-05
-0.00013089662012665053
-0.00014467521171892948
-0.00012538518348973897
-0.00012814090180819475
-0.00016396523994811996
-0.00017498811322194308
-0.00016947667658503157
-0.00015569808499275262
-0.00014191949340047367
-0.0001584538033112084
-0.00018325526817731047
-0.00018049954985885472
-0.0001777438315403989
-0.00015294236667429682
-0.00014467521171892948
-0.0001777438315403989
-0.00019427814145113364
-0.0001777438315403989
-0.00017223239490348733
-0.0001584538033112084
-0.00016672095826657574
-0.00018049954985885472
-0.00018325526817731047
-0.00018325526817731047
-0.00016947667658503157
-0.00017223239490348733
-0.00018325526817731047
-0.00018876670481422206
-0.00018325526817731047
-0.00017498811322194308
-0.00016947667658503157
-0.00020530101472495681
-0.0002190796063172357
-0.00018876670481422206
-0.00016947667658503157
-0.0001612095216296642
-0.0001584538033112084
-0.00016672095826657574
-0.00019427814145113364
-0.0001612095216296642
-0.0001777438315403989
-0.00019152242313267784
-0.00018049954985885472
-0.000150186648355841
-0.0001364080567635621
-0.00014743093003738526
-0.00014467521171892948
-0.000150186648355841
-0.00014467521171892948
-0.00012538518348973897
-0.0001364080567635621
-0.0001336523384451063
-0.00012814090180819475
-0.0001336523384451063
-0.00012814090180819475
-0.0001364080567635621
-0.00014191949340047367
-0.000150186648355841
-0.00016396523994811996
-0.0001391637750820179
-0.00014191949340047367
-0.00014467521171892948
-0.0001391637750820179
-0.00012538518348973897
-0.00010058371862363688
-8.956084534981374e-05
-9.507228198672531e-05
-0.00011436231021591582
-0.00010885087357900426
-9.231656366826955e-05
-8.129369039444639e-05
-8.956084534981374e-05
-0.00010609515526054846
-0.00010885087357900426
-9.507228198672531e-05
-0.00010333943694209268
-9.78280003051811e-05
-0.00010885087357900426
-0.00012538518348973897
-0.0001364080567635621
-0.00014191949340047367
-0.00014467521171892948
-0.0001612095216296642
-0.00016396523994811996
-0.00015569808499275262
-0.00016396523994811996
-0.00017223239490348733
-0.00019703385976958942
-0.00019427814145113364
-0.00018325526817731047
-0.00018325526817731047
-0.00018325526817731047
-0.00020254529640650095
-0.00020254529640650095
-0.00019152242313267784
-0.00017223239490348733
-0.0001391637750820179
-9.507228198672531e-05
-3.995791561760957e-05
4.82250705729756e-05
0.0002218353246356902
0.0005277200579842825
0.0008832077210650791
0.0012028710460059502
0.0009521006790264736
0.0005166971847104594
5.098078889143139e-05
-0.0003100183108262768
-0.0004560713817044334
-0.00044504850843061025
-0.000370644113832304
-0.00032379690241855563
-0.00029348400091554195
-0.00026592681773098404
-0.00023561391622797047
-0.0002080567330434125
-0.00022459104295414727
-0.0002466367895017936
-0.0002521482261387052
-0.00023285819790951464
-0.00019703385976958942
-0.00018325526817731047
-0.00019703385976958942
-0.00020254529640650095
-0.00019703385976958942
-0.00018601098649576628
-0.0001777438315403989
-0.00019703385976958942
-0.00021356816968032413
-0.00018601098649576628
-0.00016396523994811996
-0.0001777438315403989
-0.00018601098649576628
-0.00018876670481422206
-0.00019152242313267784
-0.00017223239490348733
-0.00017223239490348733
-0.00016947667658503157
-0.00015569808499275262
-0.0001612095216296642
-0.00014191949340047367
-0.0001198737468528274
-0.0001226294651712832
-0.00012814090180819475
-0.00012814090180819475
-9.231656366826955e-05
-6.200366216525588e-05
-6.475938048371164e-05
-7.57822537575348e-05
-7.57822537575348e-05
-3.995791561760957e-05
4.133577477683014e-06
4.133577477683014e-06
1.3778591592272275e-06
3.720219729915245e-05
5.373650720988717e-05
6.475938048371032e-05
5.373650720988717e-05
5.649222552834297e-05
7.30265354390777e-05
7.02708171206219e-05
7.02708171206219e-05
6.751509880216611e-05
5.098078889143139e-05
2.066788738841773e-05
6.8892957961388014e-06
9.64501411459459e-06
9.64501411459459e-06
-5.098078889143272e-05
-4.8225070572976926e-05
-6.475938048371164e-05
-7.302653543907902e-05
-8.404940871290214e-05
-0.0001226294651712832
-0.00016396523994811996
-0.00015294236667429682
-0.0001364080567635621
-0.00015294236667429682
-0.0001777438315403989
-0.00019152242313267784
-0.00018601098649576628
-0.00018325526817731047
-0.00016672095826657574
-0.0001777438315403989
-0.00019703385976958942
-0.00018601098649576628
-0.0001777438315403989
-0.00015294236667429682
-0.00016947667658503157
-0.00019427814145113364
-0.00019703385976958942
-0.00019703385976958942
-0.00019427814145113364
-0.00017498811322194308
-0.00019152242313267784
-0.00020254529640650095
-0.00019152242313267784
-0.0001777438315403989
-0.00018876670481422206
-0.00020530101472495681
-0.00021632388799877996
-0.00018601098649576628
-0.00016396523994811996
-0.00015569808499275262
-0.00017498811322194308
-0.00019427814145113364
-0.00018601098649576628
-0.00016947667658503157
-0.00016396523994811996
-0.00018876670481422206
-0.00021356816968032413
-0.00020254529640650095
-0.00018325526817731047
-0.0001584538033112084
-0.00016947667658503157
-0.0002108124513618684
-0.00018049954985885472
-0.0001612095216296642
-0.0001584538033112084
-0.00016396523994811996
-0.00017498811322194308
-0.00016947667658503157
-0.00016947667658503157
-0.0001584538033112084
-0.00014467521171892948
-0.00015294236667429682
-0.00017223239490348733
-0.0001612095216296642
-0.00014191949340047367
-0.00014467521171892948
-0.00014743093003738526
-0.00016672095826657574
-0.00016396523994811996
-0.00015569808499275262
-0.00015569808499275262
-0.00016947667658503157
-0.0001612095216296642
-0.00014743093003738526
-0.00012814090180819475
-0.000150186648355841
-0.00016396523994811996
-0.0001584538033112084
-0.0001336523384451063
-0.0001171180285343716
-0.00012538518348973897
-0.0001336523384451063
-0.00013089662012665053
-0.0001198737468528274
-0.00010609515526054846
-0.00011436231021591582
-0.0001226294651712832
-0.00012814090180819475
-0.00011436231021591582
-9.507228198672531e-05
-9.231656366826955e-05
-0.0001171180285343716
-0.00013089662012665053
-0.0001171180285343716
-0.00011160659189746003
-0.00012538518348973897
-0.00014743093003738526
-0.00019427814145113364
-0.00019427814145113364
-0.0001777438315403989
-0.00016396523994811996
-0.0001777438315403989
-0.0002108124513618684
-0.0001997895780880452
-0.0001584538033112084
-0.00016672095826657574
-0.00018601098649576628
-0.00020530101472495681
-0.00018876670481422206
-0.00018325526817731047
-0.00016672095826657574
-0.0001391637750820179
-9.507228198672531e-05
-2.342360570687485e-05
0.00011436231021591448
0.0002879725642786291
0.000560788677805752
0.0009328106507972832
0.001246962539101243
0.0012634968490119777
0.000971390707255664
0.0005029185931181804
1.3778591592272275e-06
-0.0003293083390554673
-0.00045055994506752175
-0.0004202470435645082
-0.0003568655222400251
-0.0003348197756923787
-0.0003100183108262768
-0.0002631710994125282
-0.0002549039444571609
-0.00023836963454642628
-0.00023836963454642628
-0.0002466367895017936
-0.00020254529640650095
-0.0002108124513618684
-0.0002218353246356915
-0.00022459104295414727
-0.00021632388799877996
-0.00020530101472495681
-0.0001997895780880452
-0.0002080567330434125
-0.0002190796063172357
-0.0002218353246356915
-0.00019427814145113364
-0.00019703385976958942
-0.0002108124513618684
-0.00020530101472495681
-0.00022459104295414727
-0.0001997895780880452
-0.00015569808499275262
-0.0001584538033112084
-0.0001777438315403989
-0.00019152242313267784
-0.00018049954985885472
-0.00017223239490348733
-0.00014743093003738526
-0.0001336523384451063
-0.00014467521171892948
-0.0001391637750820179
-0.0001226294651712832
-0.00010609515526054846
-9.507228198672531e-05
-9.231656366826955e-05
-6.200366216525588e-05
-3.995791561760957e-05
-2.342360570687485e-05
-1.240073243305171e-05
-6.889295796140132e-06
9.64501411459459e-06
3.169076066224089e-05
5.9247943846798756e-05
7.02708171206219e-05
4.82250705729756e-05
2.3423605706873515e-05
4.271363393606403e-05
6.751509880216611e-05
5.9247943846798756e-05
4.82250705729756e-05
2.066788738841773e-05
1.5156450751506162e-05
6.8892957961388014e-06
-1.377859159228559e-06
-2.066788738841907e-05
-5.3736507209888505e-05
-6.200366216525588e-05
-5.6492225528344285e-05
-6.200366216525588e-05
-0.00011436231021591582
-0.000150186648355841
-0.0001391637750820179
-0.00013089662012665053
-0.00014743093003738526
-0.0001584538033112084
-0.00017498811322194308
-0.00019152242313267784
-0.00018049954985885472
-0.00017498811322194308
-0.0001777438315403989
-0.00019152242313267784
-0.00018601098649576628
-0.00018325526817731047
-0.00018876670481422206
-0.00019703385976958942
-0.0002080567330434125
-0.00019703385976958942
-0.00018601098649576628
-0.00018876670481422206
-0.00018876670481422206
-0.00019703385976958942
-0.00019703385976958942
-0.00018601098649576628
-0.00016947667658503157
-0.0001777438315403989
-0.00019152242313267784
-0.00018325526817731047
-0.00018049954985885472
-0.0001777438315403989
-0.00018601098649576628
-0.00020254529640650095
-0.00021632388799877996
-0.0001777438315403989
-0.00016672095826657574
-0.00017223239490348733
-0.00019427814145113364
-0.00019703385976958942
-0.00018049954985885472
-0.00016947667658503157
-0.00017498811322194308
-0.00020530101472495681
-0.00020254529640650095
-0.00017498811322194308
-0.0001612095216296642
-0.00016396523994811996
-0.00016672095826657574
-0.00018049954985885472
-0.00017498811322194308
-0.0001612095216296642
-0.0001612095216296642
-0.00017498811322194308
-0.00018601098649576628
-0.00018049954985885472
-0.00015569808499275262
-0.00016396523994811996
-0.00018049954985885472
-0.00017498811322194308
-0.00017223239490348733
-0.0001584538033112084
-0.000150186648355841
-0.00015569808499275262
-0.00018325526817731047
-0.00019703385976958942
-0.00017498811322194308
-0.0001612095216296642
-0.0001584538033112084
-0.00018325526817731047
-0.00018049954985885472
-0.00014467521171892948
-0.0001336523384451063
-0.0001336523384451063
-0.00014467521171892948
-0.0001584538033112084
-0.00015294236667429682
-0.0001198737468528274
-0.0001336523384451063
-0.00012538518348973897
-0.00012538518348973897
-0.0001226294651712832
-0.00012814090180819475
-0.0001336523384451063
-0.0001391637750820179
-0.0001336523384451063
-0.0001226294651712832
-0.0001226294651712832
-0.00014467521171892948
-0.00016672095826657574
-0.00018601098649576628
-0.00018876670481422206
-0.00016672095826657574
-0.00017223239490348733
-0.0001997895780880452
-0.0002108124513618684
-0.0001997895780880452
-0.00019152242313267784
-0.00019703385976958942
-0.0002108124513618684
-0.0002108124513618684
-0.00021356816968032413
-0.0002108124513618684
-0.0002080567330434125
-0.00021356816968032413
-0.00018876670481422206
-0.00013089662012665053
-5.3736507209888505e-05
6.751509880216611e-05
0.000210812451361867
0.00042575848020141833
0.0007702232700083917
0.0011064209048599978
0.0011890924544136717
0.0009410778057526506
0.0005166971847104594
5.9247943846798756e-05
-0.00027694969100480727
-0.0004312699168383313
-0.00047260569161516804
-0.000447804226749066
-0.0003954455786984061
-0.0003430869306477461
-0.00027143825436789566
-0.0002631710994125282
-0.0002631710994125282
-0.0002631710994125282
-0.00023285819790951464
-0.00021632388799877996
-0.0002190796063172357
-0.00023836963454642628
-0.00023836963454642628
-0.00023285819790951464
-0.0002190796063172357
-0.00020530101472495681
-0.00021356816968032413
-0.00024112535286488197
-0.00024112535286488197
-0.00021356816968032413
-0.00020530101472495681
-0.0002190796063172357
-0.00022459104295414727
-0.00018876670481422206
-0.00018325526817731047
-0.0001777438315403989
-0.00021356816968032413
-0.0002190796063172357
-0.00018876670481422206
-0.00017223239490348733
-0.00018325526817731047
-0.00018876670481422206
-0.00017223239490348733
-0.00014743093003738526
-0.0001391637750820179
-0.00012814090180819475
-0.00013089662012665053
-0.00011160659189746003
-7.85379720759906e-05
-6.200366216525588e-05
-4.8225070572976926e-05
-5.3736507209888505e-05
-5.9247943846800084e-05
-2.342360570687485e-05
6.8892957961388014e-06
3.444647898069667e-05
9.64501411459459e-06
-1.240073243305171e-05
9.64501411459459e-06
3.169076066224089e-05
3.9957915617608246e-05
2.6179324025329308e-05
1.5156450751506162e-05
6.8892957961388014e-06
4.133577477683014e-06
4.133577477683014e-06
-3.4446478980697995e-05
-5.098078889143272e-05
-6.200366216525588e-05
-6.200366216525588e-05
-6.200366216525588e-05
-8.956084534981374e-05
-0.00012538518348973897
-0.00014743093003738526
-0.00014191949340047367
-0.00014467521171892948
-0.000150186648355841
-0.00017498811322194308
-0.00019152242313267784
-0.00018876670481422206
-0.00019427814145113364
-0.00018876670481422206
-0.0002108124513618684
-0.0002190796063172357
-0.0002080567330434125
-0.00019152242313267784
-0.00019703385976958942
-0.0002218353246356915
-0.00023010247959105888
-0.0002190796063172357
-0.00020254529640650095
-0.0001997895780880452
-0.00021356816968032413
-0.0002190796063172357
-0.00022734676127260308
-0.0002190796063172357
-0.0002218353246356915
-0.0002218353246356915
-0.00023836963454642628
-0.00022459104295414727
-0.00020530101472495681
-0.00021632388799877996
-0.0002521482261387052
-0.00024388107118333775
-0.00021356816968032413
-0.00020530101472495681
-0.00021632388799877996
-0.00022459104295414727
-0.0002080567330434125
-0.00019427814145113364
-0.00019152242313267784
-0.00019152242313267784
-0.00019703385976958942
-0.00020254529640650095
-0.00018325526817731047
-0.00018325526817731047
-0.00017498811322194308
-0.00016947667658503157
-0.00017498811322194308
-0.0001777438315403989
-0.00018049954985885472
-0.0001584538033112084
-0.000150186648355841
-0.00016672095826657574
-0.00017498811322194308
-0.00016396523994811996
-0.0001584538033112084
-0.00017498811322194308
-0.00017223239490348733
-0.00016672095826657574
-0.00015569808499275262
-0.00014743093003738526
-0.00014467521171892948
-0.00016672095826657574
-0.00017498811322194308
-0.00018049954985885472
-0.00016947667658503157
-0.00015569808499275262
-0.00016947667658503157
-0.0001612095216296642
-0.00014467521171892948
-0.00014467521171892948
-0.0001364080567635621
-0.0001391637750820179
-0.00014743093003738526
-0.00013089662012665053
-0.0001226294651712832
-0.00010885087357900426
-0.00011436231021591582
-0.00014191949340047367
-0.00014467521171892948
-0.00012538518348973897
-9.507228198672531e-05
-8.956084534981374e-05
-0.00010058371862363688
-0.00010333943694209268
-0.00010885087357900426
-0.00010333943694209268
-0.00014191949340047367
-0.0001777438315403989
-0.00018325526817731047
-0.0001777438315403989
-0.0001612095216296642
-0.00019703385976958942
-0.00019427814145113364
-0.00019152242313267784
-0.00017223239490348733
-0.00016396523994811996
-0.00019427814145113364
-0.0002080567330434125
-0.00019703385976958942
-0.00019427814145113364
-0.00018876670481422206
-0.0001777438315403989
-0.0001584538033112084
-9.78280003051811e-05
1.3778591592272275e-06
0.00011711802853437029
0.00024388107118333642
0.0004781171282520784
0.0008005361715114055
0.0010402836652170589
0.0010154822003509568
0.0007151089036392759
0.0002934840009155406
-8.680512703135793e-05
-0.0003320640573739229
-0.000423002761882964
-0.00043402563515678713
-0.0003954455786984061
-0.0003485983672846577
-0.00030726259250782084
-0.00025765966277561676
-0.0002108124513618684
-0.00021632388799877996
-0.00023285819790951464
-0.00023285819790951464
-0.00023285819790951464
-0.00020254529640650095
-0.00019703385976958942
-0.0002218353246356915
-0.00021356816968032413
-0.00019152242313267784
-0.00019427814145113364
-0.00020254529640650095
-0.0001997895780880452
-0.00019703385976958942
-0.00018049954985885472
-0.00016672095826657574
-0.0001584538033112084
-0.0001777438315403989
-0.00018876670481422206
-0.00019152242313267784
-0.00018601098649576628
-0.00018601098649576628
-0.00019427814145113364
-0.0001997895780880452
-0.00017498811322194308
-0.00014191949340047367
-0.0001336523384451063
-0.00014743093003738526
-0.00014743093003738526
-0.00012814090180819475
-0.00010609515526054846
-8.680512703135793e-05
-8.129369039444639e-05
-8.404940871290214e-05
-5.098078889143272e-05
-3.995791561760957e-05
-3.169076066224221e-05
-2.342360570687485e-05
-1.7912169069963278e-05
1.2400732433050376e-05
4.546935225451981e-05
4.546935225451981e-05
5.373650720988717e-05
4.271363393606403e-05
3.444647898069667e-05
4.546935225451981e-05
3.444647898069667e-05
1.7912169069961946e-05
-1.377859159228559e-06
1.3778591592272275e-06
2.3423605706873515e-05
4.133577477683014e-06
-3.169076066224221e-05
-4.8225070572976926e-05
-4.8225070572976926e-05
-4.2713633936065354e-05
-8.129369039444639e-05
-0.0001226294651712832
-0.00012814090180819475
-0.0001226294651712832
-0.0001336523384451063
-0.00015294236667429682
-0.00016672095826657574
-0.0001777438315403989
-0.00018876670481422206
-0.00017223239490348733
-0.0001584538033112084
-0.00016672095826657574
-0.00018601098649576628
-0.0001997895780880452
-0.0001997895780880452
-0.0001777438315403989
-0.0001777438315403989
-0.00019152242313267784
-0.00019427814145113364
-0.00017498811322194308
-0.00016396523994811996
-0.00016672095826657574
-0.00020254529640650095
-0.0002080567330434125
-0.00019152242313267784
-0.00018876670481422206
-0.00019152242313267784
-0.0002080567330434125
-0.00021356816968032413
-0.00018876670481422206
-0.0001777438315403989
-0.00019152242313267784
-0.0001997895780880452
-0.0001997895780880452
-0.00018049954985885472
-0.00017223239490348733
-0.0001777438315403989
-0.00019703385976958942
-0.00020254529640650095
-0.00018049954985885472
-0.00018325526817731047
-0.00016396523994811996
-0.0001584538033112084
-0.00015569808499275262
-0.0001364080567635621
-0.00012814090180819475
-0.00013089662012665053
-0.0001391637750820179
-0.00014743093003738526
-0.00013089662012665053
-0.0001226294651712832
-0.0001364080567635621
-0.00014467521171892948
-0.00014191949340047367
-0.0001226294651712832
-0.00010609515526054846
-0.0001198737468528274
-0.000150186648355841
-0.0001584538033112084
-0.00014191949340047367
-0.00012814090180819475
-0.0001364080567635621
-0.00014743093003738526
-0.00016947667658503157
-0.0001584538033112084
-0.0001171180285343716
-9.78280003051811e-05
-0.00010058371862363688
-0.00011160659189746003
-0.00011160659189746003
-0.00010333943694209268
-0.00010058371862363688
-0.0001198737468528274
-0.00011436231021591582
-0.00010333943694209268
-7.302653543907902e-05
-7.302653543907902e-05
-8.404940871290214e-05
-9.231656366826955e-05
-9.78280003051811e-05
-8.680512703135793e-05
-7.302653543907902e-05
-9.78280003051811e-05
-0.0001171180285343716
-0.0001364080567635621
-0.0001226294651712832
-0.00013089662012665053
-0.0001336523384451063
-0.00015569808499275262
-0.00016947667658503157
-0.00018325526817731047
-0.00017498811322194308
-0.0001584538033112084
-0.0001777438315403989
-0.00018876670481422206
-0.00018049954985885472
-0.00016947667658503157
-0.00016396523994811996
-0.00016947667658503157
-0.00019427814145113364
-0.00019152242313267784
-0.000150186648355841
-9.78280003051811e-05
-2.8935042343786426e-05
6.751509880216611e-05
0.00018601098649576498
0.0004422927901121532
0.0007950247348744939
0.001178069581139848
0.000971390707255664
0.0005773229877164866
0.0001253851834897376
-0.00023285819790951464
-0.0004147356069275966
-0.00043678135347524285
-0.00037339983215075977
-0.0003210411841000998
-0.00029072828259708617
-0.0002549039444571609
-0.0002466367895017936
-0.00023010247959105888
-0.0002108124513618684
-0.0002108124513618684
-0.00023010247959105888
-0.0002466367895017936
-0.00022459104295414727
-0.00020530101472495681
-0.00019427814145113364
-0.0001997895780880452
-0.00021632388799877996
-0.00020254529640650095
-0.00018325526817731047
-0.0001777438315403989
-0.00017498811322194308
-0.00018876670481422206
-0.00019427814145113364
-0.00017498811322194308
-0.00017498811322194308
-0.00016672095826657574
-0.00017498811322194308
-0.00019152242313267784
-0.00016947667658503157
-0.00014191949340047367
-0.00014467521171892948
-0.00016396523994811996
-0.00016947667658503157
-0.0001391637750820179
-0.00011436231021591582
-0.0001198737468528274
-0.0001198737468528274
-0.00011160659189746003
-9.78280003051811e-05
-7.85379720759906e-05
-6.200366216525588e-05
-4.5469352254521147e-05
-4.2713633936065354e-05
-2.6179324025330647e-05
-4.133577477684346e-06
6.8892957961388014e-06
2.3423605706873515e-05
4.133577477683014e-06
1.5156450751506162e-05
3.720219729915245e-05
5.373650720988717e-05
6.475938048371032e-05
4.271363393606403e-05
2.8935042343785094e-05
3.444647898069667e-05
4.271363393606403e-05
2.6179324025329308e-05
1.2400732433050376e-05
-1.377859159228559e-06
-1.5156450751507488e-05
-4.2713633936065354e-05
-6.200366216525588e-05
-9.507228198672531e-05
-0.00011436231021591582
-0.00010609515526054846
-0.0001198737468528274
-0.00014467521171892948
-0.00016947667658503157
-0.00017498811322194308
-0.0001777438315403989
-0.00018601098649576628
-0.00018876670481422206
-0.00020254529640650095
-0.0002108124513618684
-0.0001997895780880452
-0.00018049954985885472
-0.00019427814145113364
-0.0002190796063172357
-0.00023010247959105888
-0.0002108124513618684
-0.0001997895780880452
-0.00019427814145113364
-0.00021632388799877996
-0.0002218353246356915
-0.00020530101472495681
-0.00020254529640650095
-0.0002190796063172357
-0.0002218353246356915
-0.0002218353246356915
-0.00022459104295414727
-0.00020254529640650095
-0.00019427814145113364
-0.0002080567330434125
-0.00024112535286488197
-0.00023285819790951464
-0.00020530101472495681
-0.00019703385976958942
-0.00019427814145113364
-0.00020254529640650095
-0.0002108124513618684
-0.0001997895780880452
-0.00019152242313267784
-0.00019703385976958942
-0.0002080567330434125
-0.0002080567330434125
-0.00018876670481422206
-0.00018876670481422206
-0.00020530101472495681
-0.00021356816968032413
-0.0002108124513618684
-0.00019152242313267784
-0.0001612095216296642
-0.0001584538033112084
-0.00016947667658503157
-0.00018601098649576628
-0.00016947667658503157
-0.00015569808499275262
-0.00016947667658503157
-0.00016672095826657574
-0.00017223239490348733
-0.00016396523994811996
-0.0001612095216296642
-0.00015294236667429682
-0.00017223239490348733
-0.00018876670481422206
-0.0001584538033112084
-0.0001584538033112084
-0.00017223239490348733
-0.00017498811322194308
-0.00016672095826657574
-0.0001391637750820179
-0.00012538518348973897
-0.0001364080567635621
-0.00014743093003738526
-0.00014467521171892948
-0.00014743093003738526
-0.00013089662012665053
-0.0001171180285343716
-0.00012538518348973897
-0.00012538518348973897
-0.00011160659189746003
-0.0001171180285343716
-0.00010333943694209268
-0.0001226294651712832
-0.0001364080567635621
-0.0001336523384451063
-0.0001198737468528274
-0.0001226294651712832
-0.00015294236667429682
-0.00018325526817731047
-0.00018325526817731047
-0.0001612095216296642
-0.00016396523994811996
-0.00018049954985885472
-0.0001997895780880452
-0.00020530101472495681
-0.00019152242313267784
-0.00018601098649576628
-0.00018601098649576628
-0.00019152242313267784
-0.00021356816968032413
-0.00022459104295414727
-0.00019703385976958942
-0.00018325526817731047
-0.00017223239490348733
-0.00014191949340047367
-6.475938048371164e-05
4.82250705729756e-05
0.00017498811322194178
0.000392689860379949
0.0007261317769130989
0.0010981537499046305
0.0013020769054703587
0.0011394895246814672
0.0007123531853208202
0.0002135681696803228
-0.00020530101472495681
-0.00040095701533531767
-0.00043678135347524285
-0.00040095701533531767
-0.0003596212405584808
-0.0003155297474631883
-0.0002824611276417188
-0.0002466367895017936
-0.00024112535286488197
-0.0002521482261387052
-0.0002686825360494398
-0.0002218353246356915
-0.00019703385976958942
-0.00023836963454642628
-0.00023010247959105888
-0.00020254529640650095
-0.00019152242313267784
-0.0001997895780880452
-0.0002080567330434125
-0.00021632388799877996
-0.00021632388799877996
-0.00020254529640650095
-0.00018876670481422206
-0.0001997895780880452
-0.0002218353246356915
-0.0001997895780880452
-0.00016672095826657574
-0.00018601098649576628
-0.00018876670481422206
-0.00018876670481422206
-0.00016947667658503157
-0.00015569808499275262
-0.00015569808499275262
-0.00016396523994811996
-0.00016672095826657574
-0.00014743093003738526
-0.0001226294651712832
-0.00010609515526054846
-0.0001226294651712832
-0.0001336523384451063
-0.0001171180285343716
-7.57822537575348e-05
-3.720219729915378e-05
-1.5156450751507488e-05
-1.240073243305171e-05
-1.240073243305171e-05
1.2400732433050376e-05
3.720219729915245e-05
4.82250705729756e-05
3.169076066224089e-05
3.720219729915245e-05
6.200366216525454e-05
6.475938048371032e-05
6.200366216525454e-05
3.9957915617608246e-05
3.444647898069667e-05
3.720219729915245e-05
3.444647898069667e-05
9.64501411459459e-06
-3.169076066224221e-05
-4.5469352254521147e-05
-5.9247943846800084e-05
-6.751509880216745e-05
-5.3736507209888505e-05
-6.200366216525588e-05
-9.231656366826955e-05
-0.0001226294651712832
-0.0001226294651712832
-0.0001336523384451063
-0.0001584538033112084
-0.00016672095826657574
-0.00017223239490348733
-0.00017498811322194308
-0.00018325526817731047
-0.00019152242313267784
-0.0001997895780880452
-0.00020254529640650095
-0.0001997895780880452
-0.00018601098649576628
-0.00019152242313267784
-0.00020254529640650095
-0.00019427814145113364
-0.00018876670481422206
-0.0002080567330434125
-0.0002080567330434125
-0.00020530101472495681
-0.00018876670481422206
-0.00017498811322194308
-0.00018876670481422206
-0.00019703385976958942
-0.00019703385976958942
-0.00020530101472495681
-0.00019152242313267784
-0.00018049954985885472
-0.00019703385976958942
-0.00020530101472495681
-0.0001997895780880452
-0.00020530101472495681
-0.0001777438315403989
-0.00018049954985885472
-0.0002080567330434125
-0.00020254529640650095
-0.00017223239490348733
-0.00016672095826657574
-0.00017498811322194308
-0.00019152242313267784
-0.00018049954985885472
-0.00017223239490348733
-0.00016947667658503157
-0.00017223239490348733
-0.00018876670481422206
-0.00018325526817731047
-0.00018049954985885472
-0.00016396523994811996
-0.00014191949340047367
-0.00014467521171892948
-0.00016947667658503157
-0.00017498811322194308
-0.00015294236667429682
-0.0001364080567635621
-0.00015294236667429682
-0.00016947667658503157
-0.00016947667658503157
-0.00015569808499275262
-0.00014743093003738526
-0.00015294236667429682
-0.00017223239490348733
-0.00017223239490348733
-0.0001612095216296642
-0.0001584538033112084
-0.00014467521171892948
-0.00014191949340047367
-0.00014191949340047367
-0.00012814090180819475
-0.00011160659189746003
-0.0001226294651712832
-0.00014743093003738526
-0.00012538518348973897
-0.00010885087357900426
-0.00010885087357900426
-0.00010058371862363688
-9.78280003051811e-05
-0.00010885087357900426
-8.680512703135793e-05
-8.404940871290214e-05
-0.00010885087357900426
-0.00013089662012665053
-0.0001198737468528274
-0.00010333943694209268
-0.00011160659189746003
-0.0001364080567635621
-0.00017223239490348733
-0.00019703385976958942
-0.00018325526817731047
-0.00016396523994811996
-0.00017498811322194308
-0.0001997895780880452
-0.00019703385976958942
-0.00019152242313267784
-0.00017498811322194308
-0.00017223239490348733
-0.00019703385976958942
-0.0002190796063172357
-0.00021356816968032413
-0.00018325526817731047
-0.00016947667658503157
-0.0001391637750820179
-0.00010058371862363688
-2.066788738841907e-05
0.0001253851834897376
0.0002989954375524522
0.0005690558327611192
0.0009410778057526506
0.0012634968490119777
0.0012827868772411677
0.0009769021438925758
0.0005056743114366363
9.64501411459459e-06
-0.00030726259250782084
-0.0004202470435645082
-0.00040371273365377345
-0.000370644113832304
-0.0003568655222400251
-0.0002962397192339978
-0.00023285819790951464
-0.0002190796063172357
-0.00021632388799877996
-0.00023561391622797047
-0.00024388107118333775
-0.00024112535286488197
-0.00022734676127260308
-0.00021356816968032413
-0.0002190796063172357
-0.00023561391622797047
-0.00023010247959105888
-0.00021632388799877996
-0.00020530101472495681
-0.0002108124513618684
-0.00021632388799877996
-0.0002080567330434125
-0.00018876670481422206
-0.00018049954985885472
-0.00019703385976958942
-0.0002080567330434125
-0.00019152242313267784
-0.0001777438315403989
-0.00018325526817731047
-0.0002080567330434125
-0.00018325526817731047
-0.0001612095216296642
-0.00015294236667429682
-0.00014743093003738526
-0.00014743093003738526
-0.00014191949340047367
-0.00012538518348973897
-0.00010333943694209268
-0.00010058371862363688
-9.231656366826955e-05
-7.85379720759906e-05
-6.200366216525588e-05
-3.720219729915378e-05
-4.5469352254521147e-05
-3.995791561760957e-05
-2.6179324025330647e-05
1.3778591592272275e-06
2.8935042343785094e-05
3.169076066224089e-05
4.271363393606403e-05
4.546935225451981e-05
5.098078889143139e-05
6.200366216525454e-05
5.9247943846798756e-05
3.720219729915245e-05
1.5156450751506162e-05
9.64501411459459e-06
2.8935042343785094e-05
9.64501411459459e-06
-2.066788738841907e-05
-5.098078889143272e-05
-7.302653543907902e-05
-6.475938048371164e-05
-7.027081712062322e-05
-8.956084534981374e-05
-0.00011160659189746003
-0.00014467521171892948
-0.00014743093003738526
-0.000150186648355841
-0.00016396523994811996
-0.0001777438315403989
-0.0001997895780880452
-0.00019703385976958942
-0.00016947667658503157
-0.00016396523994811996
-0.00019427814145113364
-0.00020530101472495681
-0.00019703385976958942
-0.00019703385976958942
-0.00018325526817731047
-0.00019152242313267784
-0.00023010247959105888
-0.00023285819790951464
-0.00020254529640650095
-0.00019427814145113364
-0.00020530101472495681
-0.00020530101472495681
-0.00020254529640650095
-0.00020254529640650095
-0.00020530101472495681
-0.0002190796063172357
-0.0002080567330434125
-0.0002080567330434125
-0.00018876670481422206
-0.00019427814145113364
-0.0002218353246356915
-0.00023010247959105888
-0.0002108124513618684
-0.00019703385976958942
-0.00020254529640650095
-0.00021356816968032413
-0.00020530101472495681
-0.00019152242313267784
-0.00016396523994811996
-0.00014743093003738526
-0.0001584538033112084
-0.0001777438315403989
-0.00017223239490348733
-0.00014467521171892948
-0.0001364080567635621
-0.00015294236667429682
-0.00016396523994811996
-0.00016672095826657574
-0.00015294236667429682
-0.0001336523384451063
-0.00014467521171892948
-0.00016396523994811996
-0.0001612095216296642
-0.0001584538033112084
-0.000150186648355841
-0.00015294236667429682
-0.0001584538033112084
-0.000150186648355841
-0.00014191949340047367
-0.00014191949340047367
-0.000150186648355841
-0.0001584538033112084
-0.0001612095216296642
-0.00015294236667429682
-0.00014191949340047367
-0.0001391637750820179
-0.00014191949340047367
-0.0001364080567635621
-0.00012814090180819475
-0.0001198737468528274
-0.00011160659189746003
-0.0001171180285343716
-0.00013089662012665053
-0.00012538518348973897
-0.00010058371862363688
-8.956084534981374e-05
-0.00010885087357900426
-0.0001198737468528274
-0.0001171180285343716
-0.00010058371862363688
-0.00010333943694209268
-0.0001198737468528274
-0.0001336523384451063
-0.00014467521171892948
-0.0001391637750820179
-0.00014191949340047367
-0.00015569808499275262
-0.00016947667658503157
-0.00017498811322194308
-0.00017223239490348733
-0.00015569808499275262
-0.00016396523994811996
-0.00019703385976958942
-0.00020530101472495681
-0.00016672095826657574
-0.0001777438315403989
-0.00020254529640650095
-0.0002108124513618684
-0.00018325526817731047
-0.00014191949340047367
-9.231656366826955e-05
-2.8935042343786426e-05
6.475938048371032e-05
0.00019978957808804387
0.00043126991683832994
0.000753688960097657
0.0010347722285801472
0.0010733522850385282
0.0008446276646066979
0.0004808728465705341
7.578225375753347e-05
-0.00024939250782024937
-0.00041197988860914084
-0.00045055994506752175
-0.0003982012970168618
-0.00032379690241855563
-0.0003045068741893651
-0.0002852168459601746
-0.00023561391622797047
-0.00021356816968032413
-0.00019703385976958942
-0.00018325526817731047
-0.0001997895780880452
-0.00019152242313267784
-0.0001997895780880452
-0.00018601098649576628
-0.00018601098649576628
-0.00018601098649576628
-0.00019703385976958942
-0.00017498811322194308
-0.00015569808499275262
-0.0001612095216296642
-0.0001777438315403989
-0.00019703385976958942
-0.00019427814145113364
-0.0001777438315403989
-0.00016396523994811996
-0.00015569808499275262
-0.00016672095826657574
-0.00016672095826657574
-0.00014743093003738526
-0.00014191949340047367
-0.0001391637750820179
-0.00014191949340047367
-0.00014191949340047367
-0.0001171180285343716
-9.78280003051811e-05
-9.231656366826955e-05
-0.00010058371862363688
-0.00010609515526054846
-8.680512703135793e-05
-4.5469352254521147e-05
-3.169076066224221e-05
-4.2713633936065354e-05
-3.995791561760957e-05
-6.889295796140132e-06
1.7912169069961946e-05
2.3423605706873515e-05
3.169076066224089e-05
6.200366216525454e-05
8.129369039444505e-05
9.507228198672396e-05
8.68051270313566e-05
5.9247943846798756e-05
5.9247943846798756e-05
7.853797207598924e-05
7.578225375753347e-05
5.9247943846798756e-05
2.8935042343785094e-05
1.5156450751506162e-05
2.066788738841773e-05
-1.377859159228559e-06
-2.066788738841907e-05
-5.3736507209888505e-05
-6.200366216525588e-05
-5.6492225528344285e-05
-5.6492225528344285e-05
-7.027081712062322e-05
-0.00010333943694209268
-0.0001198737468528274
-0.0001336523384451063
-0.00012814090180819475
-0.00012814090180819475
-0.00014467521171892948
-0.00014743093003738526
-0.00014191949340047367
-0.00014467521171892948
-0.0001391637750820179
-0.00014743093003738526
-0.0001612095216296642
-0.0001612095216296642
-0.00013089662012665053
-0.0001336523384451063
-0.00014467521171892948
-0.00015569808499275262
-0.00016672095826657574
-0.000150186648355841
-0.00014467521171892948
-0.00016396523994811996
-0.00016396523994811996
-0.00016672095826657574
-0.0001612095216296642
-0.00015294236667429682
-0.00015294236667429682
-0.00016672095826657574
-0.00017223239490348733
-0.00016396523994811996
-0.00014467521171892948
-0.000150186648355841
-0.00015569808499275262
-0.000150186648355841
-0.00014467521171892948
-0.00012538518348973897
-0.00011160659189746003
-0.00011436231021591582
-0.0001336523384451063
-0.00013089662012665053
-0.00010609515526054846
-8.956084534981374e-05
-9.231656366826955e-05
-0.00010609515526054846
-9.231656366826955e-05
-7.85379720759906e-05
-7.302653543907902e-05
-0.00010333943694209268
-0.00011160659189746003
-8.680512703135793e-05
-5.6492225528344285e-05
-6.200366216525588e-05
-8.680512703135793e-05
-0.00010058371862363688
-8.129369039444639e-05
-7.57822537575348e-05
-7.85379720759906e-05
-9.231656366826955e-05
-0.00010058371862363688
-8.129369039444639e-05
-6.475938048371164e-05
-6.751509880216745e-05
-8.956084534981374e-05
-8.680512703135793e-05
-7.027081712062322e-05
-4.8225070572976926e-05
-3.995791561760957e-05
-5.6492225528344285e-05
-5.6492225528344285e-05
-4.8225070572976926e-05
-4.8225070572976926e-05
-3.4446478980697995e-05
-3.995791561760957e-05
-4.8225070572976926e-05
-4.2713633936065354e-05
-3.4446478980697995e-05
-2.342360570687485e-05
-2.066788738841907e-05
-3.169076066224221e-05
-4.5469352254521147e-05
-4.8225070572976926e-05
-3.4446478980697995e-05
-4.8225070572976926e-05
-9.231656366826955e-05
-0.00011160659189746003
-0.00010885087357900426
-9.78280003051811e-05
-9.78280003051811e-05
-0.00011436231021591582
-0.0001198737468528274
-0.0001198737468528274
-0.00011436231021591582
-0.00011160659189746003
-0.0001226294651712832
-0.0001198737468528274
-0.00011160659189746003
-0.00010058371862363688
-9.78280003051811e-05
-0.00010058371862363688
-9.507228198672531e-05
-6.751509880216745e-05
1.3778591592272275e-06
9.507228198672396e-05
0.00019978957808804387
0.000365132677195391
0.0006324373540856024
0.0009576121156633854
0.0011560238345922017
0.0010595736934462493
0.0006985745937285414
0.00027970540932326175
-7.85379720759906e-05
-0.00037615555046921565
-0.00036237695887693665
-0.0003100183108262768
-0.0002631710994125282
-0.00021632388799877996
-0.00017498811322194308
-0.0001612095216296642
-0.00016396523994811996
-0.00015294236667429682
-0.0001364080567635621
-0.00013089662012665053
-0.0001391637750820179
-0.00014191949340047367
-0.00014467521171892948
-0.0001336523384451063
-0.0001171180285343716
-0.00011436231021591582
-0.00011436231021591582
-0.0001171180285343716
-0.00010058371862363688
-9.78280003051811e-05
-0.00011160659189746003
-0.00012538518348973897
-0.00012538518348973897
-9.78280003051811e-05
-8.956084534981374e-05
-0.00010609515526054846
-0.00010609515526054846
-8.956084534981374e-05
-8.129369039444639e-05
-5.6492225528344285e-05
-5.098078889143272e-05
-7.027081712062322e-05
-7.85379720759906e-05
-6.751509880216745e-05
-4.5469352254521147e-05
-2.342360570687485e-05
-1.7912169069963278e-05
-2.342360570687485e-05
-1.377859159228559e-06
3.444647898069667e-05
5.649222552834297e-05
6.475938048371032e-05
5.9247943846798756e-05
7.02708171206219e-05
9.507228198672396e-05
0.00011711802853437029
0.0001253851834897376
0.00012262946517128183
0.00011436231021591448
0.00013089662012664922
0.00015294236667429551
0.00014743093003738393
0.00011711802853437029
9.23165636682682e-05
8.68051270313566e-05
9.782800030517979e-05
9.507228198672396e-05
6.751509880216611e-05
4.546935225451981e-05
4.546935225451981e-05
4.271363393606403e-05
2.066788738841773e-05
-1.240073243305171e-05
-5.6492225528344285e-05
-4.2713633936065354e-05
-5.098078889143272e-05
-9.231656366826955e-05
-0.0001171180285343716
-0.0001198737468528274
-0.00011160659189746003
-9.507228198672531e-05
-0.00010058371862363688
-0.00010609515526054846
-0.00010333943694209268
-9.78280003051811e-05
-9.78280003051811e-05
-0.00010333943694209268
-0.00011160659189746003
-0.0001226294651712832
-0.00011160659189746003
-0.00010333943694209268
-0.00011436231021591582
-0.0001336523384451063
-0.00012814090180819475
-0.00010885087357900426
-0.00010058371862363688
-0.0001171180285343716
-0.00014191949340047367
-0.000150186648355841
-0.0001336523384451063
-0.00010885087357900426
-0.00010885087357900426
-0.0001198737468528274
-0.00014191949340047367
-0.0001336523384451063
-0.00010885087357900426
-0.00011436231021591582
-0.0001391637750820179
-0.0001364080567635621
-0.0001226294651712832
-9.507228198672531e-05
-8.956084534981374e-05
-0.00010058371862363688
-0.00011160659189746003
-9.231656366826955e-05
-7.57822537575348e-05
-7.027081712062322e-05
-6.751509880216745e-05
-7.57822537575348e-05
-7.57822537575348e-05
-5.9247943846800084e-05
-5.3736507209888505e-05
-5.098078889143272e-05
-6.200366216525588e-05
-6.751509880216745e-05
-5.6492225528344285e-05
-4.8225070572976926e-05
-6.751509880216745e-05
-8.129369039444639e-05
-8.404940871290214e-05
-7.302653543907902e-05
-7.027081712062322e-05
-6.751509880216745e-05
-7.302653543907902e-05
-8.404940871290214e-05
-8.956084534981374e-05
-7.85379720759906e-05
-5.6492225528344285e-05
-8.956084534981374e-05
-7.85379720759906e-05
-3.995791561760957e-05
-2.066788738841907e-05
-3.169076066224221e-05
-5.3736507209888505e-05
-5.3736507209888505e-05
-3.4446478980697995e-05
-1.5156450751507488e-05
-2.066788738841907e-05
-4.5469352254521147e-05
-5.098078889143272e-05
-3.169076066224221e-05
-1.7912169069963278e-05
-1.240073243305171e-05
-3.4446478980697995e-05
-4.2713633936065354e-05
-3.4446478980697995e-05
-1.240073243305171e-05
-1.5156450751507488e-05
-4.8225070572976926e-05
-8.404940871290214e-05
-8.680512703135793e-05
-7.302653543907902e-05
-7.85379720759906e-05
-0.00010058371862363688
-0.00010609515526054846
-0.00010333943694209268
-8.404940871290214e-05
-7.57822537575348e-05
-9.78280003051811e-05
-0.00012538518348973897
-0.00011436231021591582
-9.78280003051811e-05
-9.507228198672531e-05
-9.78280003051811e-05
-0.00010609515526054846
-8.680512703135793e-05
-3.169076066224221e-05
6.475938048371032e-05
0.0001832552681773092
0.0003348197756923775
0.0005911015793087656
0.0009686349889372082
0.001285542595559624
0.0013020769054703587
0.0009879250171663987
0.0005111857480735478
6.200366216525454e-05
-0.00024112535286488197
-0.00036237695887693665
-0.0003458426489662019
-0.00030175115587090934
-0.0002604153810940725
-0.0002080567330434125
-0.00016396523994811996
-0.00016396523994811996
-0.00017223239490348733
-0.00014467521171892948
-0.00014467521171892948
-0.00014743093003738526
-0.00014191949340047367
-0.00014467521171892948
-0.000150186648355841
-0.0001364080567635621
-0.00013089662012665053
-0.00014743093003738526
-0.00015294236667429682
-0.00013089662012665053
-0.00010885087357900426
-0.0001226294651712832
-0.00012814090180819475
-0.0001336523384451063
-0.0001336523384451063
-0.00012538518348973897
-0.00010333943694209268
-0.00012814090180819475
-0.00015569808499275262
-0.00011436231021591582
-7.85379720759906e-05
-7.027081712062322e-05
-8.680512703135793e-05
-9.78280003051811e-05
-7.302653543907902e-05
-5.3736507209888505e-05
-4.2713633936065354e-05
-3.4446478980697995e-05
-3.169076066224221e-05
-2.342360570687485e-05
-1.240073243305171e-05
1.7912169069961946e-05
3.9957915617608246e-05
4.271363393606403e-05
5.373650720988717e-05
8.129369039444505e-05
0.00011160659189745871
0.00012814090180819342
0.00011987374685282605
0.00010609515526054714
0.00012262946517128183
0.00014743093003738393
0.00013365233844510492
0.00010885087357900291
0.00010609515526054714
0.00011160659189745871
0.00010885087357900291
8.956084534981241e-05
7.30265354390777e-05
5.098078889143139e-05
4.546935225451981e-05
3.169076066224089e-05
1.7912169069961946e-05
-6.889295796140132e-06
-3.720219729915378e-05
-4.5469352254521147e-05
-4.2713633936065354e-05
-5.9247943846800084e-05
-7.302653543907902e-05
-9.507228198672531e-05
-0.0001171180285343716
-0.00010885087357900426
-0.00011160659189746003
-0.0001336523384451063
-0.0001364080567635621
-0.00012538518348973897
-0.00011436231021591582
-0.0001198737468528274
-0.0001226294651712832
-0.00012814090180819475
-0.00013089662012665053
-0.00011436231021591582
-0.00010885087357900426
-0.0001171180285343716
-0.000150186648355841
-0.00014191949340047367
-0.00011160659189746003
-0.00010058371862363688
-0.0001226294651712832
-0.000150186648355841
-0.000150186648355841
-0.00012538518348973897
-0.0001198737468528274
-0.0001226294651712832
-0.00014467521171892948
-0.0001364080567635621
-0.0001364080567635621
-0.00014467521171892948
-0.0001364080567635621
-0.0001364080567635621
-0.0001364080567635621
-0.00013089662012665053
-0.00012538518348973897
-0.00012538518348973897
-0.0001364080567635621
-0.0001336523384451063
-0.0001171180285343716
-0.00010885087357900426
-0.00010333943694209268
-0.00011160659189746003
-0.00011436231021591582
-0.00010609515526054846
-0.00010058371862363688
-0.00010885087357900426
-9.231656366826955e-05
-8.956084534981374e-05
-8.956084534981374e-05
-8.680512703135793e-05
-8.404940871290214e-05
-0.00010058371862363688
-0.00011160659189746003
-0.00010609515526054846
-0.00010609515526054846
-0.00010609515526054846
-0.00010609515526054846
-0.0001198737468528274
-0.00011436231021591582
-9.231656366826955e-05
-6.751509880216745e-05
-6.751509880216745e-05
-9.507228198672531e-05
-0.00010333943694209268
-7.027081712062322e-05
-5.3736507209888505e-05
-7.302653543907902e-05
-8.404940871290214e-05
-8.404940871290214e-05
-7.85379720759906e-05
-5.9247943846800084e-05
-3.995791561760957e-05
-5.098078889143272e-05
-5.6492225528344285e-05
-4.5469352254521147e-05
-2.8935042343786426e-05
-2.6179324025330647e-05
-6.475938048371164e-05
-7.302653543907902e-05
-5.098078889143272e-05
-5.098078889143272e-05
-7.302653543907902e-05
-0.00010885087357900426
-0.0001391637750820179
-0.00012814090180819475
-0.00011160659189746003
-0.0001171180285343716
-0.00012814090180819475
-0.00012814090180819475
-0.00013089662012665053
-0.00011436231021591582
-0.0001171180285343716
-0.00014467521171892948
-0.00015569808499275262
-0.00014191949340047367
-0.00012538518348973897
-0.00012538518348973897
-0.0001391637750820179
-0.00011436231021591582
-4.5469352254521147e-05
4.271363393606403e-05
0.00015294236667429551
0.0002824611276417174
0.0005442543678950173
0.0009410778057526506
0.0012772754406042562
0.001337901243610284
0.0010705965667200726
0.0006241701991302349
0.00013365233844510492
-0.0002080567330434125
-0.00035410980392156926
-0.00037615555046921565
-0.0003403312123292903
-0.00029348400091554195
-0.0002466367895017936
-0.00019152242313267784
-0.0001777438315403989
-0.00019703385976958942
-0.00020530101472495681
-0.00018876670481422206
-0.00015569808499275262
-0.00014467521171892948
-0.0001584538033112084
-0.00017498811322194308
-0.00015569808499275262
-0.00012814090180819475
-0.00012814090180819475
-0.00014743093003738526
-0.00018049954985885472
-0.00016396523994811996
-0.00014743093003738526
-0.0001391637750820179
-0.00014743093003738526
-0.000150186648355841
-0.00015569808499275262
-0.000150186648355841
-0.0001336523384451063
-0.00013089662012665053
-0.0001391637750820179
-0.0001391637750820179
-0.00012538518348973897
-0.00010333943694209268
-0.00011160659189746003
-0.00010333943694209268
-8.680512703135793e-05
-7.302653543907902e-05
-7.57822537575348e-05
-8.129369039444639e-05
-6.475938048371164e-05
-4.2713633936065354e-05
-9.64501411459592e-06
9.64501411459459e-06
4.133577477683014e-06
1.5156450751506162e-05
4.546935225451981e-05
7.578225375753347e-05
9.23165636682682e-05
8.404940871290084e-05
6.751509880216611e-05
8.68051270313566e-05
0.00011160659189745871
0.00010609515526054714
9.782800030517979e-05
9.23165636682682e-05
6.475938048371032e-05
5.9247943846798756e-05
5.9247943846798756e-05
3.9957915617608246e-05
6.8892957961388014e-06
-1.377859159228559e-06
-6.889295796140132e-06
-1.7912169069963278e-05
-3.4446478980697995e-05
-4.8225070572976926e-05
-7.027081712062322e-05
-7.85379720759906e-05
-8.956084534981374e-05
-0.00011160659189746003
-0.00013089662012665053
-0.00014467521171892948
-0.00014191949340047367
-0.0001364080567635621
-0.0001364080567635621
-0.0001612095216296642
-0.00017223239490348733
-0.00016396523994811996
-0.00015569808499275262
-0.00015569808499275262
-0.0001612095216296642
-0.00018601098649576628
-0.00018049954985885472
-0.00014467521171892948
-0.00014467521171892948
-0.00016947667658503157
-0.00018601098649576628
-0.00018049954985885472
-0.00018049954985885472
-0.00017223239490348733
-0.00017223239490348733
-0.00017498811322194308
-0.00018049954985885472
-0.00016947667658503157
-0.00014467521171892948
-0.000150186648355841
-0.00016947667658503157
-0.00018325526817731047
-0.00014191949340047367
-0.00014743093003738526
-0.00016672095826657574
-0.00017498811322194308
-0.00015569808499275262
-0.00013089662012665053
-0.0001364080567635621
-0.000150186648355841
-0.0001612095216296642
-0.00015569808499275262
-0.00014743093003738526
-0.00014191949340047367
-0.0001364080567635621
-0.0001584538033112084
-0.000150186648355841
-0.00013089662012665053
-0.00012814090180819475
-0.0001336523384451063
-0.00014467521171892948
-0.00014467521171892948
-0.00013089662012665053
-0.00012538518348973897
-0.00012814090180819475
-0.00014467521171892948
-0.0001612095216296642
-0.00014467521171892948
-0.00013089662012665053
-0.0001364080567635621
-0.00014467521171892948
-0.00014467521171892948
-0.00013089662012665053
-0.00013089662012665053
-0.00013089662012665053
-0.00012814090180819475
-0.00012538518348973897
-0.0001198737468528274
-0.00011160659189746003
-0.00011160659189746003
-0.0001198737468528274
-0.0001336523384451063
-0.00012538518348973897
-0.00010609515526054846
-9.78280003051811e-05
-0.00010333943694209268
-0.00011160659189746003
-0.00010609515526054846
-8.404940871290214e-05
-8.680512703135793e-05
-9.231656366826955e-05
-0.00011436231021591582
-0.00010609515526054846
-8.680512703135793e-05
-8.404940871290214e-05
-9.507228198672531e-05
-0.0001198737468528274
-0.00014743093003738526
-0.00015569808499275262
-0.0001612095216296642
-0.0001584538033112084
-0.00016672095826657574
-0.0001777438315403989
-0.00016947667658503157
-0.00016947667658503157
-0.00016947667658503157
-0.00017223239490348733
-0.00017223239490348733
-0.00016947667658503157
-0.00017498811322194308
-0.00017498811322194308
-0.00016947667658503157
-0.0001364080567635621
-6.751509880216745e-05
1.7912169069961946e-05
0.00010333943694209132
0.0002218353246356902
0.000469849973296711
0.0008280933546959632
0.0011174437781338207
0.0011201994964522765
0.0008363605096513305
0.0004340256351567857
2.3423605706873515e-05
-0.0002824611276417188
-0.0004312699168383313
-0.00045055994506752175
-0.0003982012970168618
-0.0003320640573739229
-0.0002824611276417188
-0.00024112535286488197
-0.00024112535286488197
-0.00023010247959105888
-0.00021356816968032413
-0.00021632388799877996
-0.0001997895780880452
-0.00020254529640650095
-0.00021632388799877996
-0.0002108124513618684
-0.00018876670481422206
-0.00018325526817731047
-0.00018325526817731047
-0.00020254529640650095
-0.00019427814145113364
-0.00017223239490348733
-0.00016396523994811996
-0.00016672095826657574
-0.00016672095826657574
-0.00017223239490348733
-0.00016672095826657574
-0.00016396523994811996
-0.00016947667658503157
-0.00018601098649576628
-0.0001777438315403989
-0.0001612095216296642
-0.0001336523384451063
-0.0001364080567635621
-0.00015294236667429682
-0.00014191949340047367
-0.0001171180285343716
-9.78280003051811e-05
-9.507228198672531e-05
-8.956084534981374e-05
-8.404940871290214e-05
-6.751509880216745e-05
-5.6492225528344285e-05
-4.2713633936065354e-05
-2.8935042343786426e-05
-3.169076066224221e-05
-4.133577477684346e-06
2.3423605706873515e-05
3.444647898069667e-05
2.8935042343785094e-05
5.373650720988717e-05
6.200366216525454e-05
6.475938048371032e-05
5.649222552834297e-05
4.271363393606403e-05
4.546935225451981e-05
5.9247943846798756e-05
5.649222552834297e-05
4.271363393606403e-05
1.2400732433050376e-05
-4.133577477684346e-06
-4.133577477684346e-06
-6.889295796140132e-06
-3.4446478980697995e-05
-6.475938048371164e-05
-9.231656366826955e-05
-9.507228198672531e-05
-9.231656366826955e-05
-0.00010333943694209268
-0.00012814090180819475
-0.000150186648355841
-0.00015569808499275262
-0.0001336523384451063
-0.00013089662012665053
-0.0001612095216296642
-0.00016947667658503157
-0.0001612095216296642
-0.000150186648355841
-0.000150186648355841
-0.0001612095216296642
-0.00018601098649576628
-0.00019152242313267784
-0.0001777438315403989
-0.0001612095216296642
-0.00016947667658503157
-0.00019427814145113364
-0.00019152242313267784
-0.00017498811322194308
-0.00015294236667429682
-0.0001584538033112084
-0.00018049954985885472
-0.00019427814145113364
-0.00018325526817731047
-0.00017223239490348733
-0.00016672095826657574
-0.00018325526817731047
-0.00019427814145113364
-0.00017223239490348733
-0.0001584538033112084
-0.00015294236667429682
-0.00015294236667429682
-0.0001612095216296642
-0.0001612095216296642
-0.00014467521171892948
-0.00012814090180819475
-0.00013089662012665053
-0.0001336523384451063
-0.0001226294651712832
-0.0001198737468528274
-0.0001198737468528274
-0.0001198737468528274
-0.00012814090180819475
-0.00012538518348973897
-0.00010333943694209268
-0.00010333943694209268
-0.0001198737468528274
-0.0001364080567635621
-0.00011436231021591582
-0.00011436231021591582
-0.00011436231021591582
-0.0001226294651712832
-0.0001226294651712832
-0.00011160659189746003
-0.00010609515526054846
-0.00010333943694209268
-0.0001171180285343716
-0.00014191949340047367
-0.0001391637750820179
-0.00010885087357900426
-9.231656366826955e-05
-0.00010609515526054846
-0.00010333943694209268
-9.78280003051811e-05
-9.78280003051811e-05
-8.956084534981374e-05
-8.680512703135793e-05
-0.00010058371862363688
-0.00010885087357900426
-9.231656366826955e-05
-7.57822537575348e-05
-7.85379720759906e-05
-0.00010058371862363688
-9.78280003051811e-05
-7.85379720759906e-05
-6.751509880216745e-05
-7.57822537575348e-05
-0.00010058371862363688
-9.507228198672531e-05
-8.404940871290214e-05
-6.475938048371164e-05
-6.751509880216745e-05
-0.00010609515526054846
-0.00012538518348973897
-0.0001171180285343716
-0.00011436231021591582
-0.00012538518348973897
-0.00014743093003738526
-0.00016947667658503157
-0.00018325526817731047
-0.000150186648355841
-0.00012814090180819475
-0.00014743093003738526
-0.00017223239490348733
-0.00016672095826657574
-0.00014743093003738526
-0.00012814090180819475
-0.0001391637750820179
-0.0001364080567635621
-9.507228198672531e-05
-2.8935042343786426e-05
7.853797207598924e-05
0.00019427814145113231
0.0003733998321507585
0.0006544831006332488
0.0009769021438925758
0.0011174437781338207
0.0009300549324788276
0.0005663001144426635
-0.00018601098649576628
-0.00036788839551384826
-0.00043953707179369863
-0.00040095701533531767
-0.0003320640573739229
-0.0002962397192339978
-0.0002549039444571609
-0.00020530101472495681
-0.00020254529640650095
-0.00020530101472495681
-0.00020530101472495681
-0.00018601098649576628
-0.00016396523994811996
-0.00017498811322194308
-0.00018325526817731047
-0.00017498811322194308
-0.00016396523994811996
-0.00015569808499275262
-0.00014743093003738526
-0.0001612095216296642
-0.0001584538033112084
-0.0001364080567635621
-0.00013089662012665053
-0.00014191949340047367
-0.00015294236667429682
-0.00016396523994811996
-0.00016672095826657574
-0.00016396523994811996
-0.00014467521171892948
-0.0001364080567635621
-0.00013089662012665053
-0.00012538518348973897
-9.507228198672531e-05
-8.680512703135793e-05
-0.00010885087357900426
-0.0001226294651712832
-0.00010609515526054846
-8.129369039444639e-05
-6.751509880216745e-05
-7.57822537575348e-05
-6.751509880216745e-05
-4.5469352254521147e-05
-4.2713633936065354e-05
-1.5156450751507488e-05
1.3778591592272275e-06
4.133577477683014e-06
1.7912169069961946e-05
4.271363393606403e-05
7.02708171206219e-05
7.30265354390777e-05
6.200366216525454e-05
6.475938048371032e-05
8.129369039444505e-05
9.23165636682682e-05
0.00010885087357900291
8.404940871290084e-05
5.373650720988717e-05
5.649222552834297e-05
6.200366216525454e-05
5.098078889143139e-05
2.3423605706873515e-05
4.133577477683014e-06
-1.377859159228559e-06
-6.889295796140132e-06
-2.8935042343786426e-05
-8.129369039444639e-05
-8.129369039444639e-05
-8.129369039444639e-05
-9.507228198672531e-05
-0.00010885087357900426
-0.0001364080567635621
-0.00014467521171892948
-0.00012538518348973897
-0.0001226294651712832
-0.0001364080567635621
-0.00014743093003738526
-0.0001391637750820179
-0.000150186648355841
-0.000150186648355841
-0.00015294236667429682
-0.00016672095826657574
-0.00016672095826657574
-0.0001584538033112084
-0.00015569808499275262
-0.00015569808499275262
-0.00016396523994811996
-0.00017498811322194308
-0.00017223239490348733
-0.0001612095216296642
-0.00016396523994811996
-0.00016672095826657574
-0.00018049954985885472
-0.00016672095826657574
-0.00015569808499275262
-0.000150186648355841
-0.00016396523994811996
-0.00018876670481422206
-0.00019703385976958942
-0.00016947667658503157
-0.0001336523384451063
-0.0001364080567635621
-0.00016396523994811996
-0.00016672095826657574
-0.0001364080567635621
-0.0001226294651712832
-0.00012538518348973897
-0.00013089662012665053
-0.0001226294651712832
-0.0001171180285343716
-0.00010609515526054846
-0.00010058371862363688
-0.0001198737468528274
-0.00014191949340047367
-0.0001171180285343716
-8.956084534981374e-05
-7.85379720759906e-05
-9.78280003051811e-05
-0.0001171180285343716
-0.0001198737468528274
-0.00011436231021591582
-0.00010885087357900426
-0.00011436231021591582
-0.0001226294651712832
-0.00010885087357900426
-0.00010609515526054846
-0.00010058371862363688
-0.00011436231021591582
-0.0001226294651712832
-0.00011436231021591582
-0.00010609515526054846
-0.00010058371862363688
-0.00010609515526054846
-8.680512703135793e-05
-7.57822537575348e-05
-8.404940871290214e-05
-8.129369039444639e-05
-0.00010058371862363688
-0.00010885087357900426
-8.129369039444639e-05
-6.475938048371164e-05
-5.3736507209888505e-05
-7.027081712062322e-05
-8.404940871290214e-05
-7.57822537575348e-05
-6.475938048371164e-05
-5.6492225528344285e-05
-6.751509880216745e-05
-7.85379720759906e-05
-7.57822537575348e-05
-6.475938048371164e-05
-6.200366216525588e-05
-0.00010058371862363688
-0.00012814090180819475
-0.0001364080567635621
-0.0001226294651712832
-0.00013089662012665053
-0.00014743093003738526
-0.00014191949340047367
-0.00014743093003738526
-0.00014743093003738526
-0.0001391637750820179
-0.0001391637750820179
-0.000150186648355841
-0.00015294236667429682
-0.00014191949340047367
-0.0001364080567635621
-0.0001391637750820179
-0.0001364080567635621
-8.129369039444639e-05
1.3778591592272275e-06
0.00012262946517128183
0.0002824611276417174
0.0005139414663920035
0.0008666734111543443
0.0012083824826428621
0.0012910540321965354
0.001048550820172426
0.0005966130159456772
9.782800030517979e-05
-0.00026592681773098404
-0.0003954455786984061
-0.0003816669871061273
-0.0003375754940108345
-0.0003100183108262768
-0.0002549039444571609
-0.0001997895780880452
-0.00017223239490348733
-0.00017223239490348733
-0.00018601098649576628
-0.0001997895780880452
-0.00020254529640650095
-0.00017498811322194308
-0.0001612095216296642
-0.0001777438315403989
-0.0001777438315403989
-0.00015569808499275262
-0.00015569808499275262
-0.0001612095216296642
-0.00015294236667429682
-0.000150186648355841
-0.0001391637750820179
-0.00012814090180819475
-0.00014467521171892948
-0.00015569808499275262
-0.00014743093003738526
-0.00014191949340047367
-0.0001336523384451063
-0.0001364080567635621
-0.00014191949340047367
-0.00014467521171892948
-0.0001171180285343716
-0.00010058371862363688
-0.00010609515526054846
-0.0001226294651712832
-0.00011160659189746003
-8.680512703135793e-05
-6.751509880216745e-05
-5.3736507209888505e-05
-5.098078889143272e-05
-6.200366216525588e-05
-4.5469352254521147e-05
-2.066788738841907e-05
1.3778591592272275e-06
4.133577477683014e-06
2.066788738841773e-05
5.649222552834297e-05
8.129369039444505e-05
8.129369039444505e-05
6.751509880216611e-05
7.30265354390777e-05
8.129369039444505e-05
9.782800030517979e-05
9.507228198672396e-05
8.68051270313566e-05
7.30265354390777e-05
7.30265354390777e-05
6.751509880216611e-05
6.200366216525454e-05
3.169076066224089e-05
4.133577477683014e-06
-1.240073243305171e-05
-1.5156450751507488e-05
-2.8935042343786426e-05
-5.9247943846800084e-05
-8.956084534981374e-05
-9.78280003051811e-05
-9.231656366826955e-05
-0.00010885087357900426
-0.0001198737468528274
-0.00013089662012665053
-0.00014467521171892948
-0.00014191949340047367
-0.00012814090180819475
-0.00012814090180819475
-0.00015294236667429682
-0.00016396523994811996
-0.00015294236667429682
-0.000150186648355841
-0.00014191949340047367
-0.00017498811322194308
-0.0001777438315403989
-0.0001584538033112084
-0.0001364080567635621
-0.00015294236667429682
-0.0001612095216296642
-0.00015294236667429682
-0.0001364080567635621
-0.00012538518348973897
-0.00014467521171892948
-0.0001612095216296642
-0.00016672095826657574
-0.0001612095216296642
-0.00014191949340047367
-0.000150186648355841
-0.0001584538033112084
-0.00016396523994811996
-0.00014467521171892948
-0.00014743093003738526
-0.00015569808499275262
-0.00015569808499275262
-0.0001612095216296642
-0.0001584538033112084
-0.00014191949340047367
-0.0001336523384451063
-0.00014467521171892948
-0.00014191949340047367
-0.0001364080567635621
-0.0001336523384451063
-0.00013089662012665053
-0.00013089662012665053
-0.0001364080567635621
-0.00012538518348973897
-0.00011160659189746003
-0.00011436231021591582
-0.00011436231021591582
-0.0001198737468528274
-0.0001226294651712832
-0.00011160659189746003
-0.0001171180285343716
-0.0001391637750820179
-0.0001391637750820179
-0.0001336523384451063
-0.0001198737468528274
-0.00010885087357900426
-0.0001198737468528274
-0.00013089662012665053
-0.0001336523384451063
-0.0001171180285343716
-0.00010609515526054846
-0.00010885087357900426
-0.00013089662012665053
-0.00013089662012665053
-0.0001171180285343716
-9.507228198672531e-05
-9.231656366826955e-05
-0.00010333943694209268
-0.00010058371862363688
-9.78280003051811e-05
-6.475938048371164e-05
-4.8225070572976926e-05
-6.200366216525588e-05
-7.57822537575348e-05
-8.956084534981374e-05
-6.475938048371164e-05
-7.302653543907902e-05
-7.85379720759906e-05
-6.475938048371164e-05
-5.9247943846800084e-05
-4.8225070572976926e-05
-8.956084534981374e-05
-0.0001336523384451063
-0.0001391637750820179
-0.0001226294651712832
-0.00012538518348973897
-0.000150186648355841
-0.00015294236667429682
-0.000150186648355841
-0.000150186648355841
-0.0001391637750820179
-0.00014743093003738526
-0.00016672095826657574
-0.00016672095826657574
-0.0001584538033112084
-0.00013089662012665053
-0.00012814090180819475
-0.0001226294651712832
-9.78280003051811e-05
-9.64501411459592e-06
0.00011711802853437029
0.00025214822613870384
0.0004643385366597993
0.000806047608148317
0.001180825299458304
0.0013516798352025624
0.0011587795529106576
0.0007206203402761877
0.0002218353246356902
-0.0001777438315403989
-0.00036788839551384826
-0.0003899341420614945
-0.0003596212405584808
-0.00032379690241855563
-0.00027694969100480727
-0.00023836963454642628
-0.0002108124513618684
-0.00018876670481422206
-0.00020254529640650095
-0.0001997895780880452
-0.00018876670481422206
-0.00017498811322194308
-0.00016947667658503157
-0.00018049954985885472
-0.00018049954985885472
-0.0001777438315403989
-0.0001612095216296642
-0.000150186648355841
-0.00016396523994811996
-0.00017498811322194308
-0.00018325526817731047
-0.00017223239490348733
-0.00016947667658503157
-0.00018049954985885472
-0.00016672095826657574
-0.00016396523994811996
-0.00017498811322194308
-0.00014743093003738526
-0.000150186648355841
-0.0001584538033112084
-0.00015569808499275262
-0.0001198737468528274
-0.00010885087357900426
-0.00012814090180819475
-0.0001336523384451063
-0.00010058371862363688
-6.475938048371164e-05
-5.9247943846800084e-05
-6.751509880216745e-05
-5.9247943846800084e-05
-3.995791561760957e-05
-1.5156450751507488e-05
6.8892957961388014e-06
2.066788738841773e-05
1.7912169069961946e-05
2.6179324025329308e-05
6.200366216525454e-05
9.23165636682682e-05
9.23165636682682e-05
7.578225375753347e-05
7.30265354390777e-05
9.507228198672396e-05
0.00010609515526054714
8.404940871290084e-05
6.475938048371032e-05
5.098078889143139e-05
6.200366216525454e-05
5.649222552834297e-05
3.720219729915245e-05
1.5156450751506162e-05
-9.64501411459592e-06
-1.240073243305171e-05
-1.5156450751507488e-05
-3.4446478980697995e-05
-7.302653543907902e-05
-9.507228198672531e-05
-9.507228198672531e-05
-8.956084534981374e-05
-9.231656366826955e-05
-0.0001198737468528274
-0.00014743093003738526
-0.000150186648355841
-0.0001391637750820179
-0.0001364080567635621
-0.00014191949340047367
-0.00017498811322194308
-0.00019152242313267784
-0.00016672095826657574
-0.00014191949340047367
-0.00014191949340047367
-0.00015569808499275262
-0.00017498811322194308
-0.00015294236667429682
-0.000150186648355841
-0.0001584538033112084
-0.0001612095216296642
-0.0001777438315403989
-0.00016396523994811996
-0.00014191949340047367
-0.000150186648355841
-0.00016672095826657574
-0.0001777438315403989
-0.00016396523994811996
-0.00014467521171892948
-0.000150186648355841
-0.00016947667658503157
-0.00016672095826657574
-0.00015569808499275262
-0.0001584538033112084
-0.000150186648355841
-0.00015569808499275262
-0.00015294236667429682
-0.00014743093003738526
-0.0001391637750820179
-0.00012814090180819475
-0.00013089662012665053
-0.00012814090180819475
-0.0001198737468528274
-0.00010885087357900426
-0.00013089662012665053
-0.00014743093003738526
-0.0001391637750820179
-0.0001391637750820179
-0.00012814090180819475
-0.0001198737468528274
-0.00012538518348973897
-0.0001336523384451063
-0.0001364080567635621
-0.0001336523384451063
-0.00013089662012665053
-0.0001391637750820179
-0.00014467521171892948
-0.00013089662012665053
-0.0001198737468528274
-0.00013089662012665053
-0.00014743093003738526
-0.00015569808499275262
-0.000150186648355841
-0.0001336523384451063
-0.00012538518348973897
-0.00014191949340047367
-0.0001336523384451063
-0.00012538518348973897
-8.956084534981374e-05
-7.57822537575348e-05
-9.78280003051811e-05
-0.00011160659189746003
-0.00010885087357900426
-9.507228198672531e-05
-7.027081712062322e-05
-9.231656366826955e-05
-0.00011436231021591582
-0.00011160659189746003
-0.00010609515526054846
-0.00010333943694209268
-9.78280003051811e-05
-0.00010609515526054846
-9.78280003051811e-05
-8.129369039444639e-05
-8.404940871290214e-05
-0.0001198737468528274
-0.00014191949340047367
-0.00014743093003738526
-0.0001612095216296642
-0.0001612095216296642
-0.00015569808499275262
-0.00016396523994811996
-0.00016947667658503157
-0.00017223239490348733
-0.00016396523994811996
-0.0001777438315403989
-0.00019427814145113364
-0.00018601098649576628
-0.00016396523994811996
-0.00015569808499275262
-0.00014743093003738526
-0.00013089662012665053
-8.956084534981374e-05
-1.377859159228559e-06
0.00013640805676356078
0.0002852168459601733
0.0005525215228503846
0.0009272992141603715
0.0012166496375982292
0.0012083824826428621
0.000896986312657358
0.0004367813534752416
-2.342360570687485e-05
-0.0003127740291447324
-0.00041749132524605234
-0.00040922417029068495
-0.000370644113832304
-0.0003513540856031135
-0.00030175115587090934
-0.00023561391622797047
-0.0002108124513618684
-0.00021632388799877996
-0.00022459104295414727
-0.00021632388799877996
-0.00020530101472495681
-0.00020530101472495681
-0.0002108124513618684
-0.00021356816968032413
-0.0002108124513618684
-0.00020254529640650095
-0.0001997895780880452
-0.00021356816968032413
-0.00021356816968032413
-0.00019152242313267784
-0.00018049954985885472
-0.00017223239490348733
-0.00017498811322194308
-0.00019152242313267784
-0.00019703385976958942
-0.00018876670481422206
-0.00016672095826657574
-0.00016947667658503157
-0.0001777438315403989
-0.00016396523994811996
-0.0001612095216296642
-0.0001364080567635621
-0.00012538518348973897
-0.00013089662012665053
-0.0001336523384451063
-0.0001198737468528274
-0.00010058371862363688
-8.129369039444639e-05
-8.404940871290214e-05
-7.85379720759906e-05
-7.027081712062322e-05
-5.098078889143272e-05
-2.066788738841907e-05
-1.5156450751507488e-05
-9.64501411459592e-06
-1.377859159228559e-06
5.098078889143139e-05
4.546935225451981e-05
5.649222552834297e-05
5.9247943846798756e-05
6.200366216525454e-05
8.68051270313566e-05
7.578225375753347e-05
4.546935225451981e-05
3.169076066224089e-05
3.169076066224089e-05
2.8935042343785094e-05
1.7912169069961946e-05
-2.6179324025330647e-05
-4.5469352254521147e-05
-3.995791561760957e-05
-4.5469352254521147e-05
-5.9247943846800084e-05
-7.85379720759906e-05
-0.00010333943694209268
-0.00011160659189746003
-0.00012538518348973897
-0.00012814090180819475
-0.00014743093003738526
-0.0001612095216296642
-0.00016672095826657574
-0.0001612095216296642
-0.00015569808499275262
-0.00016947667658503157
-0.00018876670481422206
-0.00019152242313267784
-0.00017498811322194308
-0.0001612095216296642
-0.00016947667658503157
-0.00017498811322194308
-0.00018049954985885472
-0.0001584538033112084
-0.000150186648355841
-0.0001584538033112084
-0.00018049954985885472
-0.0001997895780880452
-0.00018876670481422206
-0.00016396523994811996
-0.00016947667658503157
-0.00018601098649576628
-0.00019427814145113364
-0.00019703385976958942
-0.00018601098649576628
-0.00016672095826657574
-0.00017223239490348733
-0.00018325526817731047
-0.00019152242313267784
-0.00016396523994811996
-0.0001364080567635621
-0.00014743093003738526
-0.0001584538033112084
-0.0001584538033112084
-0.0001391637750820179
-0.0001198737468528274
-0.0001336523384451063
-0.00014191949340047367
-0.00014191949340047367
-0.00012814090180819475
-0.00011436231021591582
-0.00011436231021591582
-0.0001226294651712832
-0.00010058371862363688
-7.302653543907902e-05
-8.680512703135793e-05
-0.0001171180285343716
-0.0001336523384451063
-0.00012538518348973897
-0.0001198737468528274
-0.00011436231021591582
-0.00011436231021591582
-0.00012814090180819475
-0.00012814090180819475
-0.00010058371862363688
-9.231656366826955e-05
-0.0001226294651712832
-0.0001391637750820179
-0.0001391637750820179
-0.0001171180285343716
-0.00010609515526054846
-0.00010609515526054846
-0.00012538518348973897
-0.00013089662012665053
-0.00010058371862363688
-7.85379720759906e-05
-7.85379720759906e-05
-9.231656366826955e-05
-9.507228198672531e-05
-7.85379720759906e-05
-6.475938048371164e-05
-6.200366216525588e-05
-8.404940871290214e-05
-9.231656366826955e-05
-8.129369039444639e-05
-8.404940871290214e-05
-6.751509880216745e-05
-6.751509880216745e-05
-8.404940871290214e-05
-7.302653543907902e-05
-6.751509880216745e-05
-7.302653543907902e-05
-9.507228198672531e-05
-0.00012814090180819475
-0.0001336523384451063
-0.00013089662012665053
-0.00012814090180819475
-0.0001364080567635621
-0.00014743093003738526
-0.00015569808499275262
-0.000150186648355841
-0.00013089662012665053
-0.0001336523384451063
-0.000150186648355841
-0.0001612095216296642
-0.0001612095216296642
-0.0001364080567635621
-0.00014191949340047367
-0.000150186648355841
-0.00011160659189746003
-4.2713633936065354e-05
4.82250705729756e-05
0.0001556980849927513
0.00029623971923399637
0.0005332314946211942
0.0008694291294728002
0.001128466651407644
0.0010953980315861747
0.000365132677195391
-5.098078889143272e-05
-0.0002989954375524536
-0.0003954455786984061
-0.0003982012970168618
-0.0003485983672846577
-0.00030726259250782084
-0.00026592681773098404
-0.0002218353246356915
-0.00019427814145113364
-0.00019703385976958942
-0.00019427814145113364
-0.00016396523994811996
-0.00015569808499275262
-0.0001584538033112084
-0.00016672095826657574
-0.00016947667658503157
-0.0001612095216296642
-0.00014743093003738526
-0.000150186648355841
-0.0001612095216296642
-0.00014743093003738526
-0.0001391637750820179
-0.00012538518348973897
-0.00013089662012665053
-0.0001364080567635621
-0.00014743093003738526
-0.00014191949340047367
-0.0001364080567635621
-0.00012538518348973897
-0.00013089662012665053
-0.0001336523384451063
-0.00012538518348973897
-0.00011160659189746003
-8.956084534981374e-05
-9.78280003051811e-05
-0.00010058371862363688
-8.956084534981374e-05
-6.200366216525588e-05
-5.9247943846800084e-05
-5.9247943846800084e-05
-5.098078889143272e-05
-3.995791561760957e-05
-1.7912169069963278e-05
6.8892957961388014e-06
1.5156450751506162e-05
1.5156450751506162e-05
2.3423605706873515e-05
5.098078889143139e-05
8.404940871290084e-05
8.68051270313566e-05
8.68051270313566e-05
8.68051270313566e-05
8.956084534981241e-05
9.782800030517979e-05
0.00011160659189745871
9.507228198672396e-05
7.30265354390777e-05
5.649222552834297e-05
6.200366216525454e-05
6.751509880216611e-05
4.82250705729756e-05
2.8935042343785094e-05
1.5156450751506162e-05
-1.240073243305171e-05
-3.720219729915378e-05
-5.6492225528344285e-05
-6.475938048371164e-05
-5.6492225528344285e-05
-6.751509880216745e-05
-8.680512703135793e-05
-0.00010333943694209268
-0.00012814090180819475
-0.0001391637750820179
-0.00011436231021591582
-0.00010333943694209268
-0.00013089662012665053
-0.0001336523384451063
-0.00012538518348973897
-0.00012538518348973897
-0.000150186648355841
-0.00014191949340047367
-0.0001336523384451063
-0.00012814090180819475
-0.00011436231021591582
-0.0001171180285343716
-0.0001391637750820179
-0.0001584538033112084
-0.00014191949340047367
-0.0001226294651712832
-0.00012538518348973897
-0.00012538518348973897
-0.00012538518348973897
-0.00013089662012665053
-0.00014191949340047367
-0.0001336523384451063
-0.0001364080567635621
-0.00018325526817731047
-0.00016947667658503157
-0.00013089662012665053
-0.00013089662012665053
-0.00013089662012665053
-0.0001364080567635621
-0.0001364080567635621
-0.00011160659189746003
-0.00010333943694209268
-0.00010885087357900426
-0.00011436231021591582
-0.00011160659189746003
-9.231656366826955e-05
-8.129369039444639e-05
-8.680512703135793e-05
-9.507228198672531e-05
-9.507228198672531e-05
-9.507228198672531e-05
-8.404940871290214e-05
-8.129369039444639e-05
-8.956084534981374e-05
-9.507228198672531e-05
-9.231656366826955e-05
-8.956084534981374e-05
-8.404940871290214e-05
-8.129369039444639e-05
-9.231656366826955e-05
-7.85379720759906e-05
-7.027081712062322e-05
-7.027081712062322e-05
-8.680512703135793e-05
-0.00010333943694209268
-9.78280003051811e-05
-9.507228198672531e-05
-9.507228198672531e-05
-8.956084534981374e-05
-7.57822537575348e-05
-6.475938048371164e-05
-7.027081712062322e-05
-8.956084534981374e-05
-9.231656366826955e-05
-7.57822537575348e-05
-6.475938048371164e-05
-4.5469352254521147e-05
-3.720219729915378e-05
-5.3736507209888505e-05
-7.027081712062322e-05
-6.751509880216745e-05
-5.6492225528344285e-05
-3.720219729915378e-05
-3.995791561760957e-05
-6.200366216525588e-05
-5.3736507209888505e-05
-3.4446478980697995e-05
-3.4446478980697995e-05
-7.027081712062322e-05
-0.00010058371862363688
-0.00010333943694209268
-0.00010885087357900426
-9.231656366826955e-05
-0.00010333943694209268
-0.00012538518348973897
-0.00014467521171892948
-0.0001364080567635621
-0.00011436231021591582
-0.00010885087357900426
-0.0001364080567635621
-0.00014191949340047367
-0.0001391637750820179
-0.00014191949340047367
-0.0001364080567635621
-0.00012538518348973897
-0.00010333943694209268
-5.9247943846800084e-05
2.3423605706873515e-05
0.00012814090180819342
0.0002686825360494386
0.0004891400015259016
0.0008363605096513305
0.0011615352712291134
0.0012359396658274198
0.0009906807354848547
0.0005552772411688404
9.782800030517979e-05
-0.0002190796063172357
-0.0003596212405584808
-0.0003816669871061273
-0.0003568655222400251
-0.00030175115587090934
-0.0002466367895017936
-0.00019427814145113364
-0.00016947667658503157
-0.00018876670481422206
-0.00020530101472495681
-0.00017223239490348733
-0.00015294236667429682
-0.00014743093003738526
-0.0001612095216296642
-0.0001584538033112084
-0.00013089662012665053
-0.00014467521171892948
-0.00015569808499275262
-0.000150186648355841
-0.000150186648355841
-0.0001336523384451063
-0.00012814090180819475
-0.000150186648355841
-0.0001612095216296642
-0.00015569808499275262
-0.00013089662012665053
-0.00011160659189746003
-0.00013089662012665053
-0.00013089662012665053
-0.00013089662012665053
-0.00012814090180819475
-9.231656366826955e-05
-8.680512703135793e-05
-9.78280003051811e-05
-8.956084534981374e-05
-6.751509880216745e-05
-5.6492225528344285e-05
-5.098078889143272e-05
-5.3736507209888505e-05
-5.3736507209888505e-05
-1.7912169069963278e-05
1.3778591592272275e-06
2.6179324025329308e-05
2.3423605706873515e-05
3.169076066224089e-05
5.098078889143139e-05
9.23165636682682e-05
0.00011436231021591448
0.00010058371862363556
7.853797207598924e-05
0.00010333943694209132
0.0001253851834897376
0.00012814090180819342
0.00012814090180819342
0.00011160659189745871
9.782800030517979e-05
9.782800030517979e-05
8.404940871290084e-05
6.475938048371032e-05
4.546935225451981e-05
2.8935042343785094e-05
1.5156450751506162e-05
6.8892957961388014e-06
1.3778591592272275e-06
-3.4446478980697995e-05
-4.8225070572976926e-05
-3.720219729915378e-05
-4.5469352254521147e-05
-6.751509880216745e-05
-9.507228198672531e-05
-0.00010885087357900426
-0.0001171180285343716
-0.00010333943694209268
-0.00010058371862363688
-0.00010885087357900426
-0.0001226294651712832
-0.0001198737468528274
-0.00011160659189746003
-0.00013089662012665053
-0.0001584538033112084
-0.0001391637750820179
-0.00014743093003738526
-0.00014743093003738526
-0.00012814090180819475
-0.0001391637750820179
-0.00014467521171892948
-0.0001171180285343716
-0.00011160659189746003
-0.0001336523384451063
-0.00016396523994811996
-0.0001612095216296642
-0.0001336523384451063
-0.0001198737468528274
-0.0001226294651712832
-0.0001391637750820179
-0.00015294236667429682
-0.0001391637750820179
-0.0001198737468528274
-0.0001171180285343716
-0.0001226294651712832
-0.00012538518348973897
-0.0001171180285343716
-0.00010609515526054846
-9.507228198672531e-05
-0.00010609515526054846
-0.00010609515526054846
-0.00010333943694209268
-9.507228198672531e-05
-0.00010609515526054846
-0.00010609515526054846
-0.00011436231021591582
-9.507228198672531e-05
-7.85379720759906e-05
-9.231656366826955e-05
-0.00010609515526054846
-0.0001198737468528274
-0.00010333943694209268
-8.956084534981374e-05
-7.57822537575348e-05
-8.129369039444639e-05
-0.00010333943694209268
-0.00010058371862363688
-8.680512703135793e-05
-7.85379720759906e-05
-8.680512703135793e-05
-9.78280003051811e-05
-0.00010885087357900426
-0.00010885087357900426
-9.231656366826955e-05
-8.680512703135793e-05
-9.231656366826955e-05
-8.404940871290214e-05
-7.027081712062322e-05
-6.200366216525588e-05
-6.751509880216745e-05
-7.85379720759906e-05
-7.85379720759906e-05
-6.200366216525588e-05
-5.098078889143272e-05
-4.8225070572976926e-05
-7.302653543907902e-05
-8.680512703135793e-05
-8.680512703135793e-05
-3.720219729915378e-05
-5.098078889143272e-05
-6.200366216525588e-05
-7.027081712062322e-05
-6.475938048371164e-05
-5.6492225528344285e-05
-8.956084534981374e-05
-0.0001226294651712832
-0.0001336523384451063
-0.0001336523384451063
-0.00014191949340047367
-0.0001336523384451063
-0.0001391637750820179
-0.000150186648355841
-0.00014743093003738526
-0.0001336523384451063
-0.00014467521171892948
-0.00016396523994811996
-0.00016947667658503157
-0.0001584538033112084
-0.0001391637750820179
-0.00012538518348973897
-8.680512703135793e-05
-4.2713633936065354e-05
4.271363393606403e-05
0.00017498811322194178
0.0003568655222400236
0.0006489716639963371
0.0010017036087586776
0.0012745197222858006
0.001257985412375066
0.0009410778057526506
0.0004643385366597993
-1.240073243305171e-05
-0.00030726259250782084
-0.0003871784237430386
-0.0003651326771953924
-0.0003293083390554673
-0.00030726259250782084
-0.00025765966277561676
-0.00020530101472495681
-0.00017498811322194308
-0.00017223239490348733
-0.00019152242313267784
-0.0001997895780880452
-0.00018601098649576628
-0.00017498811322194308
-0.00017223239490348733
-0.00018876670481422206
-0.00019427814145113364
-0.00018049954985885472
-0.00016672095826657574
-0.00016947667658503157
-0.00018601098649576628
-0.00020530101472495681
-0.0001777438315403989
-0.0001612095216296642
-0.00015294236667429682
-0.000150186648355841
-0.00016396523994811996
-0.00015569808499275262
-0.0001391637750820179
-0.0001364080567635621
-0.00013089662012665053
-0.0001336523384451063
-0.00011160659189746003
-0.00011160659189746003
-0.0001198737468528274
-0.0001171180285343716
-0.0001171180285343716
-0.00010058371862363688
-6.751509880216745e-05
-6.751509880216745e-05
-6.475938048371164e-05
-3.995791561760957e-05
-4.133577477684346e-06
2.3423605706873515e-05
3.444647898069667e-05
3.169076066224089e-05
3.720219729915245e-05
5.649222552834297e-05
8.956084534981241e-05
9.782800030517979e-05
8.129369039444505e-05
7.02708171206219e-05
8.956084534981241e-05
0.00010333943694209132
9.507228198672396e-05
8.68051270313566e-05
6.751509880216611e-05
4.546935225451981e-05
4.271363393606403e-05
5.098078889143139e-05
3.444647898069667e-05
9.64501411459459e-06
-9.64501411459592e-06
-2.066788738841907e-05
-4.2713633936065354e-05
-5.9247943846800084e-05
-8.404940871290214e-05
-9.78280003051811e-05
-9.507228198672531e-05
-9.231656366826955e-05
-9.78280003051811e-05
-0.0001364080567635621
-0.000150186648355841
-0.000150186648355841
-0.00013089662012665053
-0.0001336523384451063
-0.00015294236667429682
-0.00016396523994811996
-0.00015569808499275262
-0.00014191949340047367
-0.00015569808499275262
-0.00016672095826657574
-0.00016947667658503157
-0.00017498811322194308
-0.00016396523994811996
-0.0001391637750820179
-0.00014743093003738526
-0.0001612095216296642
-0.00016947667658503157
-0.0001584538033112084
-0.0001391637750820179
-0.00014743093003738526
-0.00016672095826657574
-0.00019152242313267784
-0.00017498811322194308
-0.00015569808499275262
-0.0002108124513618684
-0.00019703385976958942
-0.00016396523994811996
-0.00016672095826657574
-0.000150186648355841
-0.000150186648355841
-0.00016396523994811996
-0.0001612095216296642
-0.0001391637750820179
-0.00013089662012665053
-0.00012538518348973897
-0.0001336523384451063
-0.00014191949340047367
-0.0001391637750820179
-0.0001198737468528274
-0.0001226294651712832
-0.0001391637750820179
-0.00014743093003738526
-0.00012814090180819475
-0.0001198737468528274
-0.0001226294651712832
-0.00014191949340047367
-0.00014191949340047367
-0.00013089662012665053
-0.00010885087357900426
-0.00010609515526054846
-0.00012538518348973897
-0.0001391637750820179
-0.0001336523384451063
-0.0001198737468528274
-0.0001198737468528274
-0.00013089662012665053
-0.00014191949340047367
-0.0001391637750820179
-0.00011160659189746003
-0.00011160659189746003
-0.00012814090180819475
-0.000150186648355841
-0.00013089662012665053
-0.00011160659189746003
-9.78280003051811e-05
-9.78280003051811e-05
-0.00011160659189746003
-0.00010609515526054846
-8.404940871290214e-05
-7.302653543907902e-05
-7.302653543907902e-05
-8.956084534981374e-05
-9.78280003051811e-05
-8.404940871290214e-05
-7.85379720759906e-05
-8.129369039444639e-05
-9.78280003051811e-05
-0.00010333943694209268
-9.78280003051811e-05
-7.302653543907902e-05
-7.57822537575348e-05
-9.507228198672531e-05
-0.00011436231021591582
-0.0001226294651712832
-0.0001198737468528274
-0.0001171180285343716
-0.0001364080567635621
-0.00016396523994811996
-0.00016396523994811996
-0.00016947667658503157
-0.00016672095826657574
-0.00017223239490348733
-0.0001777438315403989
-0.00017498811322194308
-0.0001612095216296642
-0.00017498811322194308
-0.00019427814145113364
-0.00016672095826657574
-0.00012538518348973897
-4.5469352254521147e-05
3.720219729915245e-05
0.00013916377508201656
0.00032104118410009855
0.0006296816357671465
0.0010127264820325008
0.0012910540321965354
0.0012359396658274198
0.0009052534676127252
0.0004533156633859763
1.3778591592272275e-06
-0.00028797256427863044
-0.00040922417029068495
-0.00041197988860914084
-0.0003513540856031135
-0.0003045068741893651
-0.0002549039444571609
-0.00022734676127260308
-0.00021356816968032413
-0.00020530101472495681
-0.00018325526817731047
-0.0001777438315403989
-0.00020254529640650095
-0.00021632388799877996
-0.0001997895780880452
-0.00018601098649576628
-0.00018049954985885472
-0.00019703385976958942
-0.0002190796063172357
-0.00021632388799877996
-0.00019152242313267784
-0.00017498811322194308
-0.00017223239490348733
-0.00018325526817731047
-0.00018049954985885472
-0.00017223239490348733
-0.0001612095216296642
-0.0001612095216296642
-0.00017498811322194308
-0.00016947667658503157
-0.0001584538033112084
-0.00015569808499275262
-0.0001391637750820179
-0.00012814090180819475
-0.00013089662012665053
-0.0001226294651712832
-0.00010609515526054846
-9.507228198672531e-05
-9.78280003051811e-05
-9.231656366826955e-05
-8.129369039444639e-05
-5.3736507209888505e-05
-2.6179324025330647e-05
-2.066788738841907e-05
-9.64501411459592e-06
6.8892957961388014e-06
3.720219729915245e-05
5.373650720988717e-05
5.373650720988717e-05
5.649222552834297e-05
7.578225375753347e-05
0.00010058371862363556
7.30265354390777e-05
3.169076066224089e-05
3.720219729915245e-05
4.82250705729756e-05
6.200366216525454e-05
5.9247943846798756e-05
3.9957915617608246e-05
6.8892957961388014e-06
-1.377859159228559e-06
1.3778591592272275e-06
-6.889295796140132e-06
-3.169076066224221e-05
-5.6492225528344285e-05
-7.302653543907902e-05
-7.85379720759906e-05
-9.231656366826955e-05
-0.00011436231021591582
-0.0001364080567635621
-0.0001391637750820179
-0.0001364080567635621
-0.00013089662012665053
-0.00015294236667429682
-0.00017498811322194308
-0.0001777438315403989
-0.00017498811322194308
-0.00015294236667429682
-0.00016396523994811996
-0.0001777438315403989
-0.00018325526817731047
-0.00018601098649576628
-0.0001612095216296642
-0.00017498811322194308
-0.00019152242313267784
-0.00019152242313267784
-0.00018049954985885472
-0.00015569808499275262
-0.00016396523994811996
-0.00018049954985885472
-0.0001777438315403989
-0.00018601098649576628
-0.00017223239490348733
-0.00016947667658503157
-0.00017223239490348733
-0.00018325526817731047
-0.0001777438315403989
-0.00015294236667429682
-0.00014743093003738526
-0.00017223239490348733
-0.0001997895780880452
-0.0001777438315403989
-0.00015294236667429682
-0.0001364080567635621
-0.0001364080567635621
-0.0001584538033112084
-0.00016396523994811996
-0.00014191949340047367
-0.00012814090180819475
-0.0001364080567635621
-0.0001391637750820179
-0.0001336523384451063
-0.0001226294651712832
-0.00010333943694209268
-0.0001226294651712832
-0.00012814090180819475
-0.00013089662012665053
-0.00011160659189746003
-0.00011160659189746003
-0.00013089662012665053
-0.00014467521171892948
-0.00013089662012665053
-0.0001171180285343716
-0.0001226294651712832
-0.00014191949340047367
-0.00014191949340047367
-0.00012814090180819475
-0.00011436231021591582
-0.00010609515526054846
-0.0001391637750820179
-0.000150186648355841
-0.00013089662012665053
-0.00011160659189746003
-0.00011160659189746003
-0.00010058371862363688
-0.00011436231021591582
-0.00010885087357900426
-9.507228198672531e-05
-8.680512703135793e-05
-8.404940871290214e-05
-9.78280003051811e-05
-0.00011160659189746003
-8.129369039444639e-05
-6.200366216525588e-05
-6.200366216525588e-05
-7.57822537575348e-05
-9.507228198672531e-05
-8.680512703135793e-05
-7.57822537575348e-05
-6.751509880216745e-05
-8.129369039444639e-05
-9.231656366826955e-05
-9.507228198672531e-05
-9.507228198672531e-05
-0.00010058371862363688
-0.0001198737468528274
-0.000150186648355841
-0.00014191949340047367
-0.0001336523384451063
-0.00012538518348973897
-0.0001391637750820179
-0.00016672095826657574
-0.00016947667658503157
-0.000150186648355841
-0.0001364080567635621
-0.00014743093003738526
-0.00015294236667429682
-0.00016396523994811996
-0.00015294236667429682
-0.00011160659189746003
-7.85379720759906e-05
-2.8935042343786426e-05
5.649222552834297e-05
0.0001832552681773092
0.0006737731288624392
0.000985169298847943
0.0011229552147707324
0.0009658792706187528
0.0006159030441748677
0.00020254529640649968
-0.0001584538033112084
-0.0003596212405584808
-0.00041749132524605234
-0.00037891126878767127
-0.00031828546578164407
-0.0002989954375524536
-0.00027694969100480727
-0.00022734676127260308
-0.0001997895780880452
-0.00018601098649576628
-0.0001777438315403989
-0.00018876670481422206
-0.0001777438315403989
-0.00016396523994811996
-0.00014467521171892948
-0.00014191949340047367
-0.00016672095826657574
-0.0001777438315403989
-0.00015569808499275262
-0.00014191949340047367
-0.00014467521171892948
-0.00014743093003738526
-0.00015294236667429682
-0.00015294236667429682
-0.00015569808499275262
-0.00015569808499275262
-0.00014467521171892948
-0.000150186648355841
-0.0001391637750820179
-0.0001364080567635621
-0.00013089662012665053
-0.0001171180285343716
-0.0001226294651712832
-0.0001171180285343716
-9.507228198672531e-05
-7.57822537575348e-05
-8.680512703135793e-05
-9.78280003051811e-05
-9.231656366826955e-05
-5.9247943846800084e-05
-2.8935042343786426e-05
-2.8935042343786426e-05
-3.169076066224221e-05
-2.8935042343786426e-05
-9.64501411459592e-06
2.3423605706873515e-05
3.720219729915245e-05
3.444647898069667e-05
3.720219729915245e-05
7.30265354390777e-05
0.00010058371862363556
8.404940871290084e-05
8.68051270313566e-05
9.23165636682682e-05
7.30265354390777e-05
7.30265354390777e-05
6.200366216525454e-05
4.271363393606403e-05
2.066788738841773e-05
9.64501411459459e-06
4.133577477683014e-06
-9.64501411459592e-06
-3.720219729915378e-05
-5.9247943846800084e-05
-4.8225070572976926e-05
-4.8225070572976926e-05
-6.200366216525588e-05
-8.956084534981374e-05
-0.00010885087357900426
-0.00010885087357900426
-0.0001171180285343716
-0.00012538518348973897
-0.00014467521171892948
-0.0001584538033112084
-0.0001584538033112084
-0.00014191949340047367
-0.00014743093003738526
-0.000150186648355841
-0.00015569808499275262
-0.000150186648355841
-0.0001364080567635621
-0.0001391637750820179
-0.00016396523994811996
-0.00018049954985885472
-0.00016947667658503157
-0.00015569808499275262
-0.00015294236667429682
-0.0001612095216296642
-0.00016396523994811996
-0.00016396523994811996
-0.00015569808499275262
-0.00015569808499275262
-0.0001612095216296642
-0.0001777438315403989
-0.00018049954985885472
-0.00015294236667429682
-0.0001364080567635621
-0.00015569808499275262
-0.00016672095826657574
-0.0001612095216296642
-0.000150186648355841
-0.0001336523384451063
-0.0001364080567635621
-0.00015569808499275262
-0.0001391637750820179
-0.00012538518348973897
-0.0001198737468528274
-0.00011160659189746003
-0.00010885087357900426
-0.0001198737468528274
-0.00011160659189746003
-9.507228198672531e-05
-9.507228198672531e-05
-0.00010885087357900426
-0.0001226294651712832
-0.00013089662012665053
-0.00010058371862363688
-8.129369039444639e-05
-0.00010058371862363688
-0.00011436231021591582
-0.00010885087357900426
-9.78280003051811e-05
-8.956084534981374e-05
-9.507228198672531e-05
-0.00012538518348973897
-0.00011436231021591582
-9.78280003051811e-05
-0.00010333943694209268
-0.0001171180285343716
-0.00012538518348973897
-0.00010609515526054846
-9.78280003051811e-05
-9.507228198672531e-05
-0.00011160659189746003
-0.0001198737468528274
-0.00010609515526054846
-9.507228198672531e-05
-8.404940871290214e-05
-8.956084534981374e-05
-0.00010058371862363688
-8.129369039444639e-05
-7.302653543907902e-05
-6.200366216525588e-05
-7.027081712062322e-05
-8.956084534981374e-05
-9.78280003051811e-05
-7.85379720759906e-05
-6.751509880216745e-05
-6.751509880216745e-05
-8.129369039444639e-05
-8.404940871290214e-05
-7.027081712062322e-05
-4.8225070572976926e-05
-5.6492225528344285e-05
-0.00010058371862363688
-0.00013089662012665053
-0.00011160659189746003
-0.0001171180285343716
-0.00014467521171892948
-0.00015569808499275262
-0.00015569808499275262
-0.00015294236667429682
-0.00014743093003738526
-0.00014467521171892948
-0.000150186648355841
-0.00017498811322194308
-0.00016672095826657574
-0.000150186648355841
-0.00014743093003738526
-0.00014191949340047367
-0.0001336523384451063
-9.231656366826955e-05
-3.169076066224221e-05
5.373650720988717e-05
0.00018876670481422076
0.00036788839551384685
0.0006627502555886161
0.0010099707637140451
0.001167046707866025
0.0010044593270771337
0.0006269259174486908
0.00019427814145113231
-0.00017498811322194308
-0.00035410980392156926
-0.00040922417029068495
-0.00037891126878767127
-0.0003348197756923787
-0.00029072828259708617
-0.00019703385976958942
-0.00020254529640650095
-0.0002218353246356915
-0.0002190796063172357
-0.00018876670481422206
-0.00018049954985885472
-0.00018876670481422206
-0.00018876670481422206
-0.00018325526817731047
-0.0001584538033112084
-0.00015294236667429682
-0.00016396523994811996
-0.00017498811322194308
-0.00016672095826657574
-0.0001612095216296642
-0.00015294236667429682
-0.0001584538033112084
-0.00016396523994811996
-0.00016396523994811996
-0.000150186648355841
-0.00014191949340047367
-0.0001364080567635621
-0.000150186648355841
-0.00015294236667429682
-0.00014191949340047367
-0.00014191949340047367
-0.000150186648355841
-0.00014191949340047367
-0.00012814090180819475
-0.00010333943694209268
-8.129369039444639e-05
-7.027081712062322e-05
-7.57822537575348e-05
-8.404940871290214e-05
-6.751509880216745e-05
-4.5469352254521147e-05
-2.342360570687485e-05
-2.066788738841907e-05
-6.889295796140132e-06
1.7912169069961946e-05
4.271363393606403e-05
6.475938048371032e-05
6.475938048371032e-05
5.098078889143139e-05
5.9247943846798756e-05
7.30265354390777e-05
8.129369039444505e-05
7.30265354390777e-05
5.9247943846798756e-05
5.649222552834297e-05
4.82250705729756e-05
4.271363393606403e-05
2.8935042343785094e-05
-4.133577477684346e-06
-2.066788738841907e-05
-2.066788738841907e-05
-2.342360570687485e-05
-4.2713633936065354e-05
-5.6492225528344285e-05
-7.302653543907902e-05
-8.956084534981374e-05
-8.956084534981374e-05
-0.00010609515526054846
-0.00014467521171892948
-0.00017498811322194308
-0.00014191949340047367
-0.00014467521171892948
-0.0001584538033112084
-0.00017223239490348733
-0.0001777438315403989
-0.0001584538033112084
-0.0001584538033112084
-0.00017498811322194308
-0.00016672095826657574
-0.00017498811322194308
-0.00016672095826657574
-0.0001612095216296642
-0.00016396523994811996
-0.00018601098649576628
-0.00018601098649576628
-0.0001777438315403989
-0.00016947667658503157
-0.00016672095826657574
-0.00017498811322194308
-0.00017498811322194308
-0.00018049954985885472
-0.00017498811322194308
-0.00018049954985885472
-0.00018601098649576628
-0.0001997895780880452
-0.0001997895780880452
-0.00016947667658503157
-0.00014467521171892948
-0.00017223239490348733
-0.0001777438315403989
-0.0001584538033112084
-0.00015294236667429682
-0.00014467521171892948
-0.00016396523994811996
-0.00016947667658503157
-0.00015569808499275262
-0.00014191949340047367
-0.00012538518348973897
-0.0001364080567635621
-0.00014743093003738526
-0.00014191949340047367
-0.0001336523384451063
-0.00012538518348973897
-0.00012814090180819475
-0.000150186648355841
-0.000150186648355841
-0.00014191949340047367
-0.0001364080567635621
-0.0001336523384451063
-0.000150186648355841
-0.0001612095216296642
-0.00014467521171892948
-0.00012814090180819475
-0.00012814090180819475
-0.00014191949340047367
-0.000150186648355841
-0.00014467521171892948
-0.00012814090180819475
-0.00012814090180819475
-0.00014743093003738526
-0.00016396523994811996
-0.00016396523994811996
-0.0001612095216296642
-0.0001364080567635621
-0.00012814090180819475
-0.0001391637750820179
-0.00011436231021591582
-9.231656366826955e-05
-0.00011160659189746003
-0.00013089662012665053
-0.0001198737468528274
-0.00010333943694209268
-8.680512703135793e-05
-0.00010609515526054846
-0.00012538518348973897
-0.0001171180285343716
-0.00010609515526054846
-9.78280003051811e-05
-9.78280003051811e-05
-0.00011436231021591582
-0.00013089662012665053
-0.0001226294651712832
-0.00010058371862363688
-0.00010609515526054846
-0.0001226294651712832
-0.00015294236667429682
-0.00015569808499275262
-0.0001612095216296642
-0.00016396523994811996
-0.0001777438315403989
-0.0001997895780880452
-0.00019703385976958942
-0.0001777438315403989
-0.00016947667658503157
-0.00017223239490348733
-0.00018876670481422206
-0.00019703385976958942
-0.00018876670481422206
-0.00018049954985885472
-0.00020254529640650095
-0.00018049954985885472
-0.0001364080567635621
-4.8225070572976926e-05
6.475938048371032e-05
0.00017774383154039756
0.00038717842374303736
0.0007095974670023644
0.0010788637216754397
0.001271764003967345
0.0011174437781338207
0.0006958188754100854
0.000210812451361867
-0.00018325526817731047
-0.0003844227054245829
-0.0004312699168383313
-0.0003899341420614945
-0.0003513540856031135
-0.00032655262073701135
-0.00026592681773098404
-0.00022459104295414727
-0.00023285819790951464
-0.00024112535286488197
-0.00024388107118333775
-0.0002218353246356915
-0.0002080567330434125
-0.0002218353246356915
-0.00021632388799877996
-0.0002080567330434125
-0.0002108124513618684
-0.00019703385976958942
-0.0002190796063172357
-0.00021632388799877996
-0.0001997895780880452
-0.00018876670481422206
-0.00018325526817731047
-0.00018876670481422206
-0.00020254529640650095
-0.0002190796063172357
-0.00019703385976958942
-0.00018325526817731047
-0.00018601098649576628
-0.00018601098649576628
-0.00018049954985885472
-0.00015294236667429682
-0.0001391637750820179
-0.00015569808499275262
-0.00016672095826657574
-0.00015294236667429682
-0.00012538518348973897
-0.00010885087357900426
-0.00010333943694209268
-0.00010333943694209268
-0.00010058371862363688
-8.129369039444639e-05
-5.6492225528344285e-05
-3.995791561760957e-05
-3.4446478980697995e-05
-1.7912169069963278e-05
1.3778591592272275e-06
1.7912169069961946e-05
3.444647898069667e-05
4.546935225451981e-05
3.720219729915245e-05
5.098078889143139e-05
5.9247943846798756e-05
4.82250705729756e-05
3.169076066224089e-05
2.3423605706873515e-05
2.6179324025329308e-05
2.6179324025329308e-05
1.5156450751506162e-05
-1.240073243305171e-05
-3.995791561760957e-05
-5.9247943846800084e-05
-6.200366216525588e-05
-5.6492225528344285e-05
-7.85379720759906e-05
-0.00010885087357900426
-0.00013089662012665053
-0.0001391637750820179
-0.0001364080567635621
-0.0001584538033112084
-0.00018325526817731047
-0.00018601098649576628
-0.00018325526817731047
-0.00018325526817731047
-0.00018601098649576628
-0.00020530101472495681
-0.0002190796063172357
-0.00019703385976958942
-0.00018325526817731047
-0.00018601098649576628
-0.00019703385976958942
-0.0002080567330434125
-0.00020254529640650095
-0.00020530101472495681
-0.00023010247959105888
-0.00023836963454642628
-0.0002218353246356915
-0.00020530101472495681
-0.00020530101472495681
-0.00021356816968032413
-0.00023010247959105888
-0.00023010247959105888
-0.00020530101472495681
-0.00018876670481422206
-0.00020530101472495681
-0.00021632388799877996
-0.00021632388799877996
-0.0001997895780880452
-0.00019152242313267784
-0.00020530101472495681
-0.0002218353246356915
-0.00021632388799877996
-0.00020530101472495681
-0.00018601098649576628
-0.0001997895780880452
-0.00019427814145113364
-0.00018876670481422206
-0.00018601098649576628
-0.00018325526817731047
-0.00017498811322194308
-0.00018049954985885472
-0.00019152242313267784
-0.00018049954985885472
-0.00019152242313267784
-0.00018601098649576628
-0.00018601098649576628
-0.00018325526817731047
-0.00016396523994811996
-0.0001777438315403989
-0.00016396523994811996
-0.00016396523994811996
-0.00019427814145113364
-0.00019703385976958942
-0.00017498811322194308
-0.0001584538033112084
-0.00018049954985885472
-0.00019703385976958942
-0.00019703385976958942
-0.00018325526817731047
-0.00017223239490348733
-0.0001777438315403989
-0.0001997895780880452
-0.00020254529640650095
-0.00018876670481422206
-0.00018049954985885472
-0.00017498811322194308
-0.00019152242313267784
-0.00019703385976958942
-0.00018601098649576628
-0.00016947667658503157
-0.0001612095216296642
-0.00016947667658503157
-0.0001777438315403989
-0.00018325526817731047
-0.0001612095216296642
-0.00014467521171892948
-0.000150186648355841
-0.000150186648355841
-0.0001391637750820179
-0.00014467521171892948
-0.0001612095216296642
-0.00016672095826657574
-0.0001612095216296642
-0.000150186648355841
-0.0001391637750820179
-0.0001612095216296642
-0.00018049954985885472
-0.00018325526817731047
-0.00018325526817731047
-0.00019152242313267784
-0.0001997895780880452
-0.00021632388799877996
-0.00022734676127260308
-0.0002108124513618684
-0.00020254529640650095
-0.0002108124513618684
-0.00022459104295414727
-0.00023010247959105888
-0.00023561391622797047
-0.0002190796063172357
-0.0002080567330434125
-0.0002218353246356915
-0.0002218353246356915
-0.0002080567330434125
-0.00014467521171892948
-6.751509880216745e-05
6.8892957961388014e-06
0.00013089662012664922
0.0003430869306477448
0.0006958188754100854
0.0010623294117647053
0.0012276725108720525
0.0010705965667200726
0.000687551720454718
0.0002135681696803228
-0.00019427814145113364
