2.6179324025329308e-05
2.3423605706873515e-05
1.2400732433050376e-05
1.3778591592272275e-06
-2.066788738841907e-05
1.3778591592272275e-06
1.5156450751506162e-05
-1.377859159228559e-06
-6.889295796140132e-06
-1.5156450751507488e-05
-3.720219729915378e-05
-3.169076066224221e-05
-3.169076066224221e-05
-3.169076066224221e-05
-4.2713633936065354e-05
-3.995791561760957e-05
-3.169076066224221e-05
-2.342360570687485e-05
-2.342360570687485e-05
-2.6179324025330647e-05
-3.720219729915378e-05
-4.2713633936065354e-05
-3.169076066224221e-05
-3.4446478980697995e-05
-3.4446478980697995e-05
-2.342360570687485e-05
-4.133577477684346e-06
6.8892957961388014e-06
-9.64501411459592e-06
-2.342360570687485e-05
-2.066788738841907e-05
-2.342360570687485e-05
-2.342360570687485e-05
-3.169076066224221e-05
-4.8225070572976926e-05
-5.098078889143272e-05
-2.8935042343786426e-05
-3.169076066224221e-05
-1.7912169069963278e-05
-4.133577477684346e-06
-9.64501411459592e-06
-1.7912169069963278e-05
-2.6179324025330647e-05
-1.5156450751507488e-05
-1.377859159228559e-06
1.3778591592272275e-06
-4.133577477684346e-06
-1.5156450751507488e-05
1.3778591592272275e-06
2.3423605706873515e-05
1.2400732433050376e-05
6.8892957961388014e-06
1.2400732433050376e-05
9.64501411459459e-06
1.3778591592272275e-06
2.066788738841773e-05
1.2400732433050376e-05
9.64501411459459e-06
4.133577477683014e-06
-4.133577477684346e-06
-1.7912169069963278e-05
-1.377859159228559e-06
-6.889295796140132e-06
-1.7912169069963278e-05
-4.133577477684346e-06
-9.64501411459592e-06
-6.889295796140132e-06
-1.5156450751507488e-05
-1.240073243305171e-05
-1.377859159228559e-06
-1.240073243305171e-05
-3.169076066224221e-05
-2.066788738841907e-05
-1.377859159228559e-06
4.133577477683014e-06
-6.889295796140132e-06
-4.133577477684346e-06
-1.377859159228559e-06
4.133577477683014e-06
1.5156450751506162e-05
6.751509880216611e-05
0.0001832552681773092
0.00041749132524605104
0.000753688960097657
0.0010292607919432355
0.001089886594949263
0.0009272992141603715
0.0006048801709010444
0.00023561391622796914
4.133577477683014e-06
-8.956084534981374e-05
-0.00012538518348973897
-0.0001198737468528274
-0.00010609515526054846
-8.956084534981374e-05
-5.3736507209888505e-05
-3.995791561760957e-05
-5.9247943846800084e-05
-5.098078889143272e-05
-3.720219729915378e-05
-5.098078889143272e-05
-6.751509880216745e-05
-6.475938048371164e-05
-4.8225070572976926e-05
-4.5469352254521147e-05
-5.3736507209888505e-05
-4.2713633936065354e-05
-4.8225070572976926e-05
-4.5469352254521147e-05
-3.995791561760957e-05
-5.098078889143272e-05
-4.8225070572976926e-05
-4.5469352254521147e-05
-3.4446478980697995e-05
-2.066788738841907e-05
-2.066788738841907e-05
-3.720219729915378e-05
-4.2713633936065354e-05
-3.4446478980697995e-05
-2.066788738841907e-05
-5.098078889143272e-05
-5.9247943846800084e-05
-4.8225070572976926e-05
-1.7912169069963278e-05
-1.5156450751507488e-05
-1.5156450751507488e-05
-1.377859159228559e-06
-4.133577477684346e-06
1.3778591592272275e-06
2.6179324025329308e-05
4.82250705729756e-05
5.373650720988717e-05
5.9247943846798756e-05
5.9247943846798756e-05
6.200366216525454e-05
6.200366216525454e-05
5.373650720988717e-05
5.9247943846798756e-05
7.30265354390777e-05
7.853797207598924e-05
7.853797207598924e-05
7.853797207598924e-05
5.649222552834297e-05
5.098078889143139e-05
5.649222552834297e-05
5.373650720988717e-05
4.82250705729756e-05
3.169076066224089e-05
2.066788738841773e-05
2.3423605706873515e-05
6.8892957961388014e-06
-6.889295796140132e-06
-1.240073243305171e-05
-2.342360570687485e-05
-1.5156450751507488e-05
-9.64501411459592e-06
-1.240073243305171e-05
-2.8935042343786426e-05
-5.098078889143272e-05
-4.2713633936065354e-05
-1.7912169069963278e-05
-4.133577477684346e-06
-3.4446478980697995e-05
-7.302653543907902e-05
-5.6492225528344285e-05
-4.8225070572976926e-05
-4.5469352254521147e-05
-6.475938048371164e-05
-7.302653543907902e-05
-6.200366216525588e-05
-4.2713633936065354e-05
-3.995791561760957e-05
-4.2713633936065354e-05
-4.5469352254521147e-05
-4.8225070572976926e-05
-5.3736507209888505e-05
-3.995791561760957e-05
-4.2713633936065354e-05
-6.200366216525588e-05
-4.5469352254521147e-05
-2.066788738841907e-05
-3.169076066224221e-05
-4.5469352254521147e-05
-3.720219729915378e-05
-3.169076066224221e-05
-1.240073243305171e-05
-2.342360570687485e-05
-4.5469352254521147e-05
-4.8225070572976926e-05
-3.720219729915378e-05
-3.169076066224221e-05
-2.8935042343786426e-05
-4.2713633936065354e-05
-3.169076066224221e-05
-3.169076066224221e-05
-1.240073243305171e-05
-1.377859159228559e-06
-4.133577477684346e-06
-9.64501411459592e-06
-4.133577477684346e-06
6.8892957961388014e-06
1.5156450751506162e-05
2.066788738841773e-05
2.3423605706873515e-05
1.7912169069961946e-05
3.720219729915245e-05
3.169076066224089e-05
2.6179324025329308e-05
3.169076066224089e-05
3.444647898069667e-05
3.9957915617608246e-05
4.82250705729756e-05
2.8935042343785094e-05
9.64501411459459e-06
-6.889295796140132e-06
-1.7912169069963278e-05
-9.64501411459592e-06
-1.5156450751507488e-05
-9.64501411459592e-06
-4.133577477684346e-06
1.3778591592272275e-06
-1.377859159228559e-06
4.133577477683014e-06
4.133577477683014e-06
-4.133577477684346e-06
-9.64501411459592e-06
1.2400732433050376e-05
2.3423605706873515e-05
9.64501411459459e-06
-1.377859159228559e-06
4.133577477683014e-06
3.444647898069667e-05
6.751509880216611e-05
0.00010609515526054714
0.00020530101472495543
0.0004340256351567857
0.0007426660868238338
0.0009879250171663987
0.0010182379186694126
0.0008115590447852286
0.0005029185931181804
0.00019978957808804387
-9.64501411459592e-06
-8.129369039444639e-05
-8.404940871290214e-05
-7.85379720759906e-05
-6.200366216525588e-05
-4.5469352254521147e-05
-2.6179324025330647e-05
-2.8935042343786426e-05
-5.6492225528344285e-05
-2.6179324025330647e-05
-9.64501411459592e-06
-3.169076066224221e-05
-4.2713633936065354e-05
-4.2713633936065354e-05
-3.4446478980697995e-05
-2.342360570687485e-05
-3.169076066224221e-05
-1.7912169069963278e-05
-1.7912169069963278e-05
-1.7912169069963278e-05
-1.7912169069963278e-05
-9.64501411459592e-06
-9.64501411459592e-06
-1.7912169069963278e-05
-2.6179324025330647e-05
-6.889295796140132e-06
9.64501411459459e-06
9.64501411459459e-06
-9.64501411459592e-06
-6.889295796140132e-06
6.8892957961388014e-06
2.3423605706873515e-05
2.066788738841773e-05
9.64501411459459e-06
1.3778591592272275e-06
1.3778591592272275e-06
6.8892957961388014e-06
1.5156450751506162e-05
2.8935042343785094e-05
2.066788738841773e-05
2.3423605706873515e-05
3.720219729915245e-05
5.098078889143139e-05
7.30265354390777e-05
7.853797207598924e-05
7.30265354390777e-05
0.00010609515526054714
0.00010609515526054714
0.00010058371862363556
0.00011160659189745871
0.00010609515526054714
0.00010333943694209132
9.23165636682682e-05
8.956084534981241e-05
9.23165636682682e-05
9.782800030517979e-05
8.404940871290084e-05
8.404940871290084e-05
8.129369039444505e-05
4.546935225451981e-05
2.8935042343785094e-05
2.8935042343785094e-05
3.169076066224089e-05
2.3423605706873515e-05
9.64501411459459e-06
1.5156450751506162e-05
2.066788738841773e-05
3.444647898069667e-05
9.64501411459459e-06
-6.889295796140132e-06
6.8892957961388014e-06
6.8892957961388014e-06
1.3778591592272275e-06
-1.7912169069963278e-05
-2.066788738841907e-05
-2.8935042343786426e-05
-2.342360570687485e-05
-1.7912169069963278e-05
-4.133577477684346e-06
6.8892957961388014e-06
4.133577477683014e-06
1.7912169069961946e-05
1.3778591592272275e-06
-2.6179324025330647e-05
-2.6179324025330647e-05
-1.240073243305171e-05
-6.889295796140132e-06
-9.64501411459592e-06
-2.6179324025330647e-05
-2.066788738841907e-05
-9.64501411459592e-06
-4.133577477684346e-06
-9.64501411459592e-06
-2.066788738841907e-05
-2.066788738841907e-05
6.8892957961388014e-06
1.5156450751506162e-05
1.3778591592272275e-06
1.3778591592272275e-06
-1.240073243305171e-05
-2.342360570687485e-05
1.3778591592272275e-06
4.133577477683014e-06
2.6179324025329308e-05
1.5156450751506162e-05
-6.889295796140132e-06
6.8892957961388014e-06
1.7912169069961946e-05
2.066788738841773e-05
6.8892957961388014e-06
1.5156450751506162e-05
2.6179324025329308e-05
2.8935042343785094e-05
3.720219729915245e-05
3.444647898069667e-05
3.720219729915245e-05
5.373650720988717e-05
7.30265354390777e-05
5.649222552834297e-05
3.9957915617608246e-05
3.720219729915245e-05
3.444647898069667e-05
2.8935042343785094e-05
3.444647898069667e-05
5.098078889143139e-05
3.444647898069667e-05
1.7912169069961946e-05
1.7912169069961946e-05
1.5156450751506162e-05
-4.133577477684346e-06
-2.8935042343786426e-05
-6.889295796140132e-06
1.3778591592272275e-06
-4.133577477684346e-06
1.3778591592272275e-06
1.7912169069961946e-05
1.3778591592272275e-06
-6.889295796140132e-06
-1.377859159228559e-06
1.5156450751506162e-05
1.5156450751506162e-05
4.271363393606403e-05
7.02708171206219e-05
0.00014191949340047234
0.00029623971923399637
0.0005745672693980309
0.0009024977492942696
0.0011201994964522765
0.001128466651407644
0.0009024977492942696
0.0005525215228503846
0.0001832552681773092
-3.720219729915378e-05
-0.00010885087357900426
-9.78280003051811e-05
-8.680512703135793e-05
-7.85379720759906e-05
-4.2713633936065354e-05
-2.6179324025330647e-05
-4.8225070572976926e-05
-7.57822537575348e-05
-8.404940871290214e-05
-6.200366216525588e-05
-5.9247943846800084e-05
-6.200366216525588e-05
-7.85379720759906e-05
-7.302653543907902e-05
-5.3736507209888505e-05
-4.5469352254521147e-05
-4.5469352254521147e-05
-6.200366216525588e-05
-3.995791561760957e-05
-2.8935042343786426e-05
-3.169076066224221e-05
-4.5469352254521147e-05
-5.3736507209888505e-05
-4.8225070572976926e-05
-4.2713633936065354e-05
-2.342360570687485e-05
-3.169076066224221e-05
-3.995791561760957e-05
-5.098078889143272e-05
-4.8225070572976926e-05
-5.098078889143272e-05
-4.2713633936065354e-05
-3.4446478980697995e-05
-3.995791561760957e-05
-5.098078889143272e-05
-2.8935042343786426e-05
-1.240073243305171e-05
-2.342360570687485e-05
-1.5156450751507488e-05
-2.066788738841907e-05
-6.889295796140132e-06
9.64501411459459e-06
2.8935042343785094e-05
3.169076066224089e-05
3.9957915617608246e-05
4.82250705729756e-05
4.82250705729756e-05
5.373650720988717e-05
5.9247943846798756e-05
4.271363393606403e-05
3.169076066224089e-05
4.271363393606403e-05
3.444647898069667e-05
2.8935042343785094e-05
2.8935042343785094e-05
2.3423605706873515e-05
2.066788738841773e-05
9.64501411459459e-06
1.3778591592272275e-06
1.3778591592272275e-06
-1.377859159228559e-06
1.2400732433050376e-05
-1.240073243305171e-05
-2.8935042343786426e-05
-2.6179324025330647e-05
-4.8225070572976926e-05
-3.995791561760957e-05
-3.995791561760957e-05
-4.8225070572976926e-05
-5.098078889143272e-05
-6.200366216525588e-05
-7.027081712062322e-05
-5.9247943846800084e-05
-5.6492225528344285e-05
-5.6492225528344285e-05
-5.9247943846800084e-05
-5.098078889143272e-05
-3.995791561760957e-05
-4.8225070572976926e-05
-5.098078889143272e-05
-6.200366216525588e-05
-5.9247943846800084e-05
-3.720219729915378e-05
-2.342360570687485e-05
-4.8225070572976926e-05
-7.302653543907902e-05
-7.027081712062322e-05
-5.9247943846800084e-05
-4.5469352254521147e-05
-3.995791561760957e-05
-4.5469352254521147e-05
-6.200366216525588e-05
-9.507228198672531e-05
-8.956084534981374e-05
-7.302653543907902e-05
-6.475938048371164e-05
-5.6492225528344285e-05
-5.9247943846800084e-05
-5.6492225528344285e-05
-5.3736507209888505e-05
-4.2713633936065354e-05
-2.8935042343786426e-05
-3.995791561760957e-05
-5.098078889143272e-05
-4.5469352254521147e-05
-5.6492225528344285e-05
-6.200366216525588e-05
-3.720219729915378e-05
-2.342360570687485e-05
-3.169076066224221e-05
-4.5469352254521147e-05
-5.3736507209888505e-05
-3.995791561760957e-05
-9.64501411459592e-06
-2.342360570687485e-05
-1.5156450751507488e-05
-1.7912169069963278e-05
-1.377859159228559e-06
4.133577477683014e-06
4.133577477683014e-06
1.3778591592272275e-06
-6.889295796140132e-06
-9.64501411459592e-06
-6.889295796140132e-06
-1.377859159228559e-06
-6.889295796140132e-06
-2.342360570687485e-05
-3.995791561760957e-05
-3.169076066224221e-05
-5.098078889143272e-05
-8.129369039444639e-05
-7.57822537575348e-05
-5.3736507209888505e-05
-4.5469352254521147e-05
-3.169076066224221e-05
-3.720219729915378e-05
-3.995791561760957e-05
-3.995791561760957e-05
-3.4446478980697995e-05
-3.169076066224221e-05
-2.066788738841907e-05
-1.240073243305171e-05
2.6179324025329308e-05
0.00011160659189745871
0.000263171099412527
0.0005387429312581057
0.0008639176928358884
0.0010705965667200726
0.0010650851300831607
0.0008280933546959632
0.00043126991683832994
8.129369039444505e-05
-0.00010058371862363688
-0.00016396523994811996
-0.00014467521171892948
-0.0001226294651712832
-0.00011436231021591582
-9.507228198672531e-05
-7.57822537575348e-05
-8.404940871290214e-05
-8.956084534981374e-05
-6.751509880216745e-05
-6.751509880216745e-05
-8.956084534981374e-05
-8.680512703135793e-05
-7.57822537575348e-05
-8.680512703135793e-05
-0.00010609515526054846
-0.00010058371862363688
-9.231656366826955e-05
-8.404940871290214e-05
-7.57822537575348e-05
-6.475938048371164e-05
-5.6492225528344285e-05
-5.3736507209888505e-05
-6.475938048371164e-05
-6.751509880216745e-05
-5.098078889143272e-05
-3.4446478980697995e-05
-5.098078889143272e-05
-7.302653543907902e-05
-8.129369039444639e-05
-6.751509880216745e-05
-6.200366216525588e-05
-6.751509880216745e-05
-5.9247943846800084e-05
-4.2713633936065354e-05
-2.066788738841907e-05
-2.342360570687485e-05
-2.066788738841907e-05
-2.342360570687485e-05
-3.4446478980697995e-05
-2.8935042343786426e-05
-1.7912169069963278e-05
4.133577477683014e-06
1.7912169069961946e-05
1.2400732433050376e-05
2.3423605706873515e-05
2.6179324025329308e-05
2.8935042343785094e-05
4.82250705729756e-05
3.9957915617608246e-05
2.8935042343785094e-05
3.169076066224089e-05
3.444647898069667e-05
2.6179324025329308e-05
3.444647898069667e-05
3.720219729915245e-05
3.444647898069667e-05
2.3423605706873515e-05
2.066788738841773e-05
4.133577477683014e-06
-1.7912169069963278e-05
-2.342360570687485e-05
-3.720219729915378e-05
-3.720219729915378e-05
-2.8935042343786426e-05
-4.8225070572976926e-05
-5.9247943846800084e-05
-3.995791561760957e-05
-3.4446478980697995e-05
-4.5469352254521147e-05
-6.200366216525588e-05
-9.507228198672531e-05
-8.404940871290214e-05
-7.57822537575348e-05
-7.302653543907902e-05
-6.475938048371164e-05
-7.57822537575348e-05
-9.231656366826955e-05
-8.129369039444639e-05
-7.57822537575348e-05
-7.57822537575348e-05
-8.129369039444639e-05
-8.129369039444639e-05
-8.129369039444639e-05
-6.751509880216745e-05
-4.5469352254521147e-05
-7.302653543907902e-05
-0.00010333943694209268
-0.00010333943694209268
-7.57822537575348e-05
-7.027081712062322e-05
-5.6492225528344285e-05
-6.751509880216745e-05
-7.57822537575348e-05
-6.751509880216745e-05
-7.027081712062322e-05
-7.85379720759906e-05
-9.231656366826955e-05
-7.85379720759906e-05
-5.6492225528344285e-05
-4.8225070572976926e-05
-4.5469352254521147e-05
-4.2713633936065354e-05
-4.2713633936065354e-05
-5.098078889143272e-05
-5.098078889143272e-05
-4.8225070572976926e-05
-5.9247943846800084e-05
-7.302653543907902e-05
-7.85379720759906e-05
-6.475938048371164e-05
-6.200366216525588e-05
-4.8225070572976926e-05
-3.995791561760957e-05
-2.8935042343786426e-05
-3.720219729915378e-05
-3.720219729915378e-05
-2.066788738841907e-05
-3.720219729915378e-05
-3.720219729915378e-05
-3.169076066224221e-05
-2.342360570687485e-05
-1.5156450751507488e-05
-3.720219729915378e-05
-4.5469352254521147e-05
-4.8225070572976926e-05
-6.200366216525588e-05
-6.200366216525588e-05
-5.6492225528344285e-05
-5.6492225528344285e-05
-6.200366216525588e-05
-6.475938048371164e-05
-8.129369039444639e-05
-8.956084534981374e-05
-7.027081712062322e-05
-6.200366216525588e-05
-7.302653543907902e-05
-7.027081712062322e-05
-9.231656366826955e-05
-8.956084534981374e-05
-8.956084534981374e-05
-6.751509880216745e-05
-2.8935042343786426e-05
2.066788738841773e-05
7.30265354390777e-05
0.00020805673304341124
0.0004450485084306089
0.0007233760585946433
0.0008776962844281674
0.0008391162279697863
0.0006324373540856024
0.000315529747463187
1.7912169069961946e-05
-0.00014191949340047367
-0.00017498811322194308
-0.0001612095216296642
-0.0001584538033112084
-0.00014191949340047367
-0.00012538518348973897
-0.00011436231021591582
-0.00011160659189746003
-0.00011160659189746003
-0.00011160659189746003
-0.00010885087357900426
-9.78280003051811e-05
-0.00011436231021591582
-0.00012814090180819475
-0.0001226294651712832
-0.0001391637750820179
-0.00013089662012665053
-0.00012814090180819475
-0.0001391637750820179
-0.0001364080567635621
-0.00014191949340047367
-0.0001226294651712832
-0.00011436231021591582
-0.0001198737468528274
-0.0001336523384451063
-0.0001198737468528274
-0.00010333943694209268
-9.507228198672531e-05
-0.00010058371862363688
-0.00011160659189746003
-0.00011160659189746003
-0.00010609515526054846
-9.78280003051811e-05
-9.231656366826955e-05
-8.680512703135793e-05
-9.78280003051811e-05
-9.507228198672531e-05
-8.404940871290214e-05
-9.231656366826955e-05
-8.956084534981374e-05
-5.098078889143272e-05
-3.4446478980697995e-05
-4.8225070572976926e-05
-3.995791561760957e-05
-2.6179324025330647e-05
-4.5469352254521147e-05
-4.8225070572976926e-05
-3.169076066224221e-05
-1.5156450751507488e-05
-1.240073243305171e-05
-2.342360570687485e-05
-3.169076066224221e-05
-2.8935042343786426e-05
-3.4446478980697995e-05
-4.5469352254521147e-05
-4.8225070572976926e-05
-4.8225070572976926e-05
-5.9247943846800084e-05
-6.475938048371164e-05
-6.200366216525588e-05
-5.3736507209888505e-05
-8.129369039444639e-05
-8.956084534981374e-05
-8.404940871290214e-05
-8.404940871290214e-05
-8.956084534981374e-05
-0.00010333943694209268
-0.00011436231021591582
-0.00013089662012665053
-0.00014191949340047367
-0.00016396523994811996
-0.000150186648355841
-0.00012814090180819475
-0.0001198737468528274
-0.0001226294651712832
-0.00013089662012665053
-0.0001226294651712832
-0.00010609515526054846
-0.00010609515526054846
-0.00010609515526054846
-0.00010609515526054846
-0.00012538518348973897
-0.00014191949340047367
-0.0001336523384451063
-0.0001226294651712832
-0.00011160659189746003
-0.0001198737468528274
-0.0001226294651712832
-0.0001198737468528274
-0.0001226294651712832
-0.00013089662012665053
-0.00010609515526054846
-0.00010609515526054846
-0.00010333943694209268
-0.0001198737468528274
-0.00011436231021591582
-0.00011436231021591582
-0.0001226294651712832
-0.00012538518348973897
-0.00012538518348973897
-0.00011160659189746003
-0.00010885087357900426
-9.507228198672531e-05
-8.680512703135793e-05
-8.404940871290214e-05
-8.404940871290214e-05
-7.57822537575348e-05
-7.027081712062322e-05
-7.57822537575348e-05
-5.9247943846800084e-05
-5.6492225528344285e-05
-5.6492225528344285e-05
-4.8225070572976926e-05
-3.720219729915378e-05
-3.4446478980697995e-05
-3.720219729915378e-05
-5.3736507209888505e-05
-4.5469352254521147e-05
-3.720219729915378e-05
-3.995791561760957e-05
-5.6492225528344285e-05
-5.098078889143272e-05
-4.2713633936065354e-05
-2.6179324025330647e-05
-2.6179324025330647e-05
-5.6492225528344285e-05
-6.200366216525588e-05
-5.3736507209888505e-05
-5.9247943846800084e-05
-8.129369039444639e-05
-6.751509880216745e-05
-5.9247943846800084e-05
-6.475938048371164e-05
-6.475938048371164e-05
-6.200366216525588e-05
-6.475938048371164e-05
-6.475938048371164e-05
-6.751509880216745e-05
-6.751509880216745e-05
-6.475938048371164e-05
-5.9247943846800084e-05
-5.9247943846800084e-05
-2.066788738841907e-05
3.444647898069667e-05
0.00012262946517128183
0.00031001831082627527
0.0005828344243533982
0.0008253376363775078
0.0009190320592050041
0.0008088033264667726
0.0005332314946211942
0.00019978957808804387
-5.6492225528344285e-05
-0.0001584538033112084
-0.00016672095826657574
-0.0001336523384451063
-0.0001171180285343716
-0.0001171180285343716
-0.0001226294651712832
-0.00013089662012665053
-0.00012814090180819475
-0.00012814090180819475
-0.0001364080567635621
-0.0001198737468528274
-0.0001171180285343716
-0.00010333943694209268
-0.00010058371862363688
-0.00010609515526054846
-0.00011436231021591582
-0.00010885087357900426
-9.231656366826955e-05
-9.78280003051811e-05
-0.00010058371862363688
-9.507228198672531e-05
-9.507228198672531e-05
-8.956084534981374e-05
-9.231656366826955e-05
-7.85379720759906e-05
-6.751509880216745e-05
-7.302653543907902e-05
-3.995791561760957e-05
-2.066788738841907e-05
-5.6492225528344285e-05
-9.231656366826955e-05
-8.404940871290214e-05
-7.302653543907902e-05
-7.57822537575348e-05
-6.751509880216745e-05
-5.9247943846800084e-05
-8.129369039444639e-05
-7.57822537575348e-05
-5.6492225528344285e-05
-3.720219729915378e-05
-2.8935042343786426e-05
-2.8935042343786426e-05
-2.342360570687485e-05
-2.342360570687485e-05
-2.6179324025330647e-05
4.133577477683014e-06
3.169076066224089e-05
4.546935225451981e-05
4.271363393606403e-05
3.720219729915245e-05
3.169076066224089e-05
3.444647898069667e-05
2.8935042343785094e-05
2.6179324025329308e-05
2.8935042343785094e-05
1.5156450751506162e-05
1.5156450751506162e-05
2.3423605706873515e-05
3.444647898069667e-05
2.066788738841773e-05
-1.377859159228559e-06
-4.133577477684346e-06
-9.64501411459592e-06
-1.5156450751507488e-05
-1.5156450751507488e-05
-2.342360570687485e-05
-3.4446478980697995e-05
-3.169076066224221e-05
-3.995791561760957e-05
-3.995791561760957e-05
-4.8225070572976926e-05
-5.3736507209888505e-05
-4.5469352254521147e-05
-2.066788738841907e-05
-1.240073243305171e-05
-5.098078889143272e-05
-6.751509880216745e-05
-4.5469352254521147e-05
-3.169076066224221e-05
-1.7912169069963278e-05
-3.4446478980697995e-05
-4.2713633936065354e-05
-4.2713633936065354e-05
-3.720219729915378e-05
-2.8935042343786426e-05
-3.169076066224221e-05
-3.995791561760957e-05
-3.995791561760957e-05
-3.169076066224221e-05
-2.342360570687485e-05
-3.720219729915378e-05
-5.098078889143272e-05
-5.3736507209888505e-05
-3.169076066224221e-05
-1.240073243305171e-05
-1.7912169069963278e-05
-2.342360570687485e-05
-4.5469352254521147e-05
-5.6492225528344285e-05
-3.4446478980697995e-05
-2.066788738841907e-05
-3.169076066224221e-05
-1.5156450751507488e-05
-1.5156450751507488e-05
-2.6179324025330647e-05
-1.5156450751507488e-05
-4.133577477684346e-06
-1.5156450751507488e-05
-2.8935042343786426e-05
-4.133577477684346e-06
4.133577477683014e-06
6.8892957961388014e-06
-4.133577477684346e-06
-6.889295796140132e-06
1.3778591592272275e-06
-6.889295796140132e-06
1.3778591592272275e-06
1.2400732433050376e-05
2.066788738841773e-05
2.6179324025329308e-05
1.2400732433050376e-05
6.8892957961388014e-06
1.5156450751506162e-05
6.8892957961388014e-06
6.8892957961388014e-06
2.3423605706873515e-05
2.3423605706873515e-05
-1.240073243305171e-05
-1.7912169069963278e-05
-1.240073243305171e-05
-6.889295796140132e-06
-3.720219729915378e-05
-4.8225070572976926e-05
-2.8935042343786426e-05
-1.240073243305171e-05
-6.889295796140132e-06
-2.066788738841907e-05
-3.4446478980697995e-05
-3.4446478980697995e-05
-2.066788738841907e-05
-9.64501411459592e-06
-1.377859159228559e-06
9.64501411459459e-06
2.066788738841773e-05
6.200366216525454e-05
0.00013916377508201656
0.00026041538109407124
0.0004726056916151668
0.0007371546501869223
0.0009328106507972832
0.0009328106507972832
0.0007316432135500107
0.00041473560692759526
8.956084534981241e-05
-9.507228198672531e-05
-0.000150186648355841
-0.00013089662012665053
-9.78280003051811e-05
-8.680512703135793e-05
-7.85379720759906e-05
-5.6492225528344285e-05
-4.8225070572976926e-05
-5.098078889143272e-05
-3.995791561760957e-05
-5.098078889143272e-05
-6.475938048371164e-05
-5.6492225528344285e-05
-5.098078889143272e-05
-5.6492225528344285e-05
-5.6492225528344285e-05
-5.6492225528344285e-05
-5.098078889143272e-05
-4.2713633936065354e-05
-5.3736507209888505e-05
-4.2713633936065354e-05
-4.8225070572976926e-05
-5.9247943846800084e-05
-6.200366216525588e-05
-5.6492225528344285e-05
-4.2713633936065354e-05
-3.995791561760957e-05
-5.6492225528344285e-05
-5.098078889143272e-05
-4.8225070572976926e-05
-4.5469352254521147e-05
-5.3736507209888505e-05
-6.751509880216745e-05
-6.475938048371164e-05
-5.3736507209888505e-05
-5.9247943846800084e-05
-4.8225070572976926e-05
-3.995791561760957e-05
-4.5469352254521147e-05
-5.098078889143272e-05
-2.8935042343786426e-05
-1.240073243305171e-05
-1.377859159228559e-06
4.133577477683014e-06
1.3778591592272275e-06
4.133577477683014e-06
9.64501411459459e-06
4.133577477683014e-06
1.3778591592272275e-06
1.2400732433050376e-05
3.169076066224089e-05
3.9957915617608246e-05
2.3423605706873515e-05
4.133577477683014e-06
1.7912169069961946e-05
3.444647898069667e-05
1.7912169069961946e-05
-9.64501411459592e-06
-4.133577477684346e-06
-6.889295796140132e-06
-4.133577477684346e-06
-6.889295796140132e-06
-1.5156450751507488e-05
-1.7912169069963278e-05
-3.720219729915378e-05
-4.5469352254521147e-05
-5.098078889143272e-05
-5.6492225528344285e-05
-7.027081712062322e-05
-7.85379720759906e-05
-5.098078889143272e-05
-5.098078889143272e-05
-6.751509880216745e-05
-6.751509880216745e-05
-6.200366216525588e-05
-7.302653543907902e-05
-6.475938048371164e-05
-5.098078889143272e-05
-5.6492225528344285e-05
-5.9247943846800084e-05
-5.3736507209888505e-05
-6.751509880216745e-05
-7.85379720759906e-05
-5.9247943846800084e-05
-5.9247943846800084e-05
-5.6492225528344285e-05
-5.9247943846800084e-05
-6.200366216525588e-05
-6.200366216525588e-05
-5.9247943846800084e-05
-6.751509880216745e-05
-5.3736507209888505e-05
-6.751509880216745e-05
-7.027081712062322e-05
-6.475938048371164e-05
-6.200366216525588e-05
-5.6492225528344285e-05
-5.6492225528344285e-05
-6.200366216525588e-05
-6.200366216525588e-05
-7.57822537575348e-05
-7.302653543907902e-05
-6.200366216525588e-05
-4.8225070572976926e-05
-4.8225070572976926e-05
-5.6492225528344285e-05
-5.6492225528344285e-05
-6.475938048371164e-05
-4.2713633936065354e-05
-4.5469352254521147e-05
-5.6492225528344285e-05
-4.2713633936065354e-05
-3.995791561760957e-05
-5.098078889143272e-05
-3.995791561760957e-05
-5.3736507209888505e-05
-5.098078889143272e-05
-3.995791561760957e-05
-2.8935042343786426e-05
-9.64501411459592e-06
4.133577477683014e-06
-2.066788738841907e-05
-3.720219729915378e-05
-3.720219729915378e-05
-2.066788738841907e-05
-9.64501411459592e-06
4.133577477683014e-06
1.7912169069961946e-05
4.133577477683014e-06
-3.4446478980697995e-05
-6.475938048371164e-05
-7.302653543907902e-05
-6.751509880216745e-05
-7.302653543907902e-05
-6.475938048371164e-05
-6.751509880216745e-05
-7.027081712062322e-05
-7.85379720759906e-05
-7.85379720759906e-05
-4.5469352254521147e-05
-3.169076066224221e-05
-3.995791561760957e-05
-5.3736507209888505e-05
-3.720219729915378e-05
-1.5156450751507488e-05
-1.377859159228559e-06
2.066788738841773e-05
9.23165636682682e-05
0.00023285819790951333
0.000469849973296711
0.000960367833981841
0.0009631235523002968
0.0007564446784161128
0.00042575848020141833
9.507228198672396e-05
-0.00010609515526054846
-0.000150186648355841
-0.00014191949340047367
-0.0001171180285343716
-8.129369039444639e-05
-6.751509880216745e-05
-9.231656366826955e-05
-0.00011436231021591582
-0.00010333943694209268
-8.680512703135793e-05
-5.9247943846800084e-05
-6.475938048371164e-05
-8.680512703135793e-05
-9.78280003051811e-05
-0.00010333943694209268
-9.231656366826955e-05
-8.680512703135793e-05
-0.00010058371862363688
-9.78280003051811e-05
-8.956084534981374e-05
-7.027081712062322e-05
-5.9247943846800084e-05
-7.302653543907902e-05
-7.302653543907902e-05
-5.9247943846800084e-05
-6.200366216525588e-05
-6.200366216525588e-05
-5.6492225528344285e-05
-5.9247943846800084e-05
-5.9247943846800084e-05
-5.098078889143272e-05
-3.995791561760957e-05
-5.098078889143272e-05
-7.302653543907902e-05
-6.200366216525588e-05
-4.2713633936065354e-05
-5.9247943846800084e-05
-7.027081712062322e-05
-4.5469352254521147e-05
-3.169076066224221e-05
-9.64501411459592e-06
-6.889295796140132e-06
-9.64501411459592e-06
1.3778591592272275e-06
1.2400732433050376e-05
3.169076066224089e-05
3.720219729915245e-05
2.066788738841773e-05
1.3778591592272275e-06
9.64501411459459e-06
1.7912169069961946e-05
3.444647898069667e-05
4.271363393606403e-05
4.82250705729756e-05
5.649222552834297e-05
5.373650720988717e-05
4.546935225451981e-05
2.066788738841773e-05
-4.133577477684346e-06
-1.7912169069963278e-05
-9.64501411459592e-06
-1.5156450751507488e-05
-2.8935042343786426e-05
-2.8935042343786426e-05
-2.8935042343786426e-05
-3.4446478980697995e-05
-3.169076066224221e-05
-4.2713633936065354e-05
-4.8225070572976926e-05
-4.5469352254521147e-05
-4.5469352254521147e-05
-4.5469352254521147e-05
-4.2713633936065354e-05
-2.6179324025330647e-05
-2.6179324025330647e-05
-4.8225070572976926e-05
-4.8225070572976926e-05
-4.8225070572976926e-05
-6.751509880216745e-05
-6.751509880216745e-05
-5.9247943846800084e-05
-5.6492225528344285e-05
-6.475938048371164e-05
-5.6492225528344285e-05
-6.200366216525588e-05
-5.6492225528344285e-05
-4.8225070572976926e-05
-4.2713633936065354e-05
-4.8225070572976926e-05
-7.302653543907902e-05
-5.6492225528344285e-05
-3.4446478980697995e-05
-5.6492225528344285e-05
-5.9247943846800084e-05
-4.8225070572976926e-05
-5.6492225528344285e-05
-6.751509880216745e-05
-6.475938048371164e-05
-5.9247943846800084e-05
-5.6492225528344285e-05
-5.3736507209888505e-05
-4.5469352254521147e-05
-4.8225070572976926e-05
-4.2713633936065354e-05
-4.2713633936065354e-05
-4.5469352254521147e-05
-4.2713633936065354e-05
-2.066788738841907e-05
-2.8935042343786426e-05
-2.342360570687485e-05
-4.133577477684346e-06
-3.169076066224221e-05
-4.5469352254521147e-05
-2.342360570687485e-05
-9.64501411459592e-06
-1.5156450751507488e-05
-1.5156450751507488e-05
-1.377859159228559e-06
-4.133577477684346e-06
-9.64501411459592e-06
-2.066788738841907e-05
-1.5156450751507488e-05
-1.240073243305171e-05
-1.5156450751507488e-05
-2.342360570687485e-05
-1.7912169069963278e-05
-2.066788738841907e-05
-3.169076066224221e-05
-3.720219729915378e-05
-3.720219729915378e-05
-3.995791561760957e-05
-4.8225070572976926e-05
-3.169076066224221e-05
-2.342360570687485e-05
-5.9247943846800084e-05
-6.751509880216745e-05
-5.3736507209888505e-05
-2.6179324025330647e-05
-3.169076066224221e-05
-5.9247943846800084e-05
-5.6492225528344285e-05
-5.6492225528344285e-05
-5.6492225528344285e-05
-4.2713633936065354e-05
-2.6179324025330647e-05
6.8892957961388014e-06
5.373650720988717e-05
0.0001694766765850302
0.0003844227054245816
0.0006847960021362622
0.0009410778057526506
0.000971390707255664
0.0008005361715114055
0.0004918957198443572
0.00015018664835583973
-6.475938048371164e-05
-0.0001391637750820179
-0.00014743093003738526
-0.0001336523384451063
-0.0001198737468528274
-0.0001364080567635621
-0.0001391637750820179
-0.0001198737468528274
-0.0001226294651712832
-0.0001226294651712832
-0.00011160659189746003
-0.00011436231021591582
-0.00011436231021591582
-0.00010885087357900426
-0.00010609515526054846
-9.231656366826955e-05
-0.00010609515526054846
-0.00010058371862363688
-9.78280003051811e-05
-8.404940871290214e-05
-0.00010333943694209268
-8.956084534981374e-05
-8.680512703135793e-05
-8.404940871290214e-05
-8.956084534981374e-05
-0.00010333943694209268
-9.507228198672531e-05
-8.680512703135793e-05
-8.129369039444639e-05
-9.231656366826955e-05
-9.507228198672531e-05
-0.00010058371862363688
-9.231656366826955e-05
-8.129369039444639e-05
-8.404940871290214e-05
-8.956084534981374e-05
-8.404940871290214e-05
-5.9247943846800084e-05
-4.5469352254521147e-05
-3.995791561760957e-05
-4.2713633936065354e-05
-4.5469352254521147e-05
-2.8935042343786426e-05
-6.889295796140132e-06
-1.5156450751507488e-05
-3.4446478980697995e-05
-2.6179324025330647e-05
-2.066788738841907e-05
-2.066788738841907e-05
-1.240073243305171e-05
-1.377859159228559e-06
-6.889295796140132e-06
-4.133577477684346e-06
-9.64501411459592e-06
-4.133577477684346e-06
-9.64501411459592e-06
-2.6179324025330647e-05
-2.066788738841907e-05
-2.8935042343786426e-05
-3.720219729915378e-05
-3.4446478980697995e-05
-5.3736507209888505e-05
-7.302653543907902e-05
-7.302653543907902e-05
-5.6492225528344285e-05
-5.9247943846800084e-05
-8.404940871290214e-05
-7.57822537575348e-05
-6.475938048371164e-05
-5.6492225528344285e-05
-6.475938048371164e-05
-7.57822537575348e-05
-8.680512703135793e-05
-0.00010609515526054846
-0.00010609515526054846
-0.00011436231021591582
-0.00011436231021591582
-0.00010609515526054846
-0.0001171180285343716
-9.78280003051811e-05
-8.129369039444639e-05
-9.231656366826955e-05
-9.507228198672531e-05
-8.129369039444639e-05
-6.751509880216745e-05
-7.57822537575348e-05
-7.85379720759906e-05
-9.231656366826955e-05
-0.00010333943694209268
-9.231656366826955e-05
-7.027081712062322e-05
-7.302653543907902e-05
-9.231656366826955e-05
-6.475938048371164e-05
-5.9247943846800084e-05
-7.85379720759906e-05
-8.129369039444639e-05
-6.751509880216745e-05
-8.680512703135793e-05
-7.302653543907902e-05
-6.200366216525588e-05
-7.57822537575348e-05
-9.78280003051811e-05
-8.680512703135793e-05
-6.475938048371164e-05
-5.6492225528344285e-05
-7.302653543907902e-05
-6.751509880216745e-05
-6.475938048371164e-05
-5.6492225528344285e-05
-4.2713633936065354e-05
-4.8225070572976926e-05
-4.5469352254521147e-05
-4.5469352254521147e-05
-2.342360570687485e-05
-2.8935042343786426e-05
-3.169076066224221e-05
-3.720219729915378e-05
-3.995791561760957e-05
-2.8935042343786426e-05
-3.720219729915378e-05
-5.098078889143272e-05
-5.6492225528344285e-05
-3.995791561760957e-05
-3.169076066224221e-05
-4.8225070572976926e-05
-7.85379720759906e-05
-7.85379720759906e-05
-7.57822537575348e-05
-7.57822537575348e-05
-7.027081712062322e-05
-5.9247943846800084e-05
-6.475938048371164e-05
-7.027081712062322e-05
-8.404940871290214e-05
-8.956084534981374e-05
-8.129369039444639e-05
-5.9247943846800084e-05
-5.098078889143272e-05
-5.9247943846800084e-05
-6.751509880216745e-05
-6.200366216525588e-05
-5.3736507209888505e-05
-1.7912169069963278e-05
2.3423605706873515e-05
9.507228198672396e-05
0.00022459104295414594
0.0004533156633859763
0.000687551720454718
0.0007840018616006707
0.0006930631570916297
0.0004505599450675205
0.00016120952162966288
-5.9247943846800084e-05
-0.00015294236667429682
-0.00016672095826657574
-0.00014467521171892948
-0.00013089662012665053
-0.0001391637750820179
-0.00015569808499275262
-0.00015294236667429682
-0.00011160659189746003
-0.00011436231021591582
-0.0001198737468528274
-0.00011160659189746003
-0.0001171180285343716
-0.00011436231021591582
-9.78280003051811e-05
-9.231656366826955e-05
-0.00010058371862363688
-8.956084534981374e-05
-0.00010058371862363688
-8.680512703135793e-05
-0.00010058371862363688
-9.78280003051811e-05
-7.027081712062322e-05
-5.9247943846800084e-05
-7.57822537575348e-05
-9.78280003051811e-05
-0.00011436231021591582
-0.00010609515526054846
-9.78280003051811e-05
-7.302653543907902e-05
-8.956084534981374e-05
-7.85379720759906e-05
-6.751509880216745e-05
-7.302653543907902e-05
-7.302653543907902e-05
-5.9247943846800084e-05
-6.751509880216745e-05
-6.200366216525588e-05
-4.5469352254521147e-05
-2.6179324025330647e-05
-2.066788738841907e-05
-3.995791561760957e-05
-5.9247943846800084e-05
-4.2713633936065354e-05
-2.6179324025330647e-05
-1.5156450751507488e-05
-1.377859159228559e-06
-6.889295796140132e-06
-6.889295796140132e-06
-6.889295796140132e-06
-6.889295796140132e-06
-2.066788738841907e-05
-2.342360570687485e-05
-2.8935042343786426e-05
-3.995791561760957e-05
-4.5469352254521147e-05
-4.8225070572976926e-05
-5.098078889143272e-05
-5.6492225528344285e-05
-7.302653543907902e-05
-7.302653543907902e-05
-5.6492225528344285e-05
-7.027081712062322e-05
-7.85379720759906e-05
-7.302653543907902e-05
-7.302653543907902e-05
-8.680512703135793e-05
-8.404940871290214e-05
-7.302653543907902e-05
-7.85379720759906e-05
-6.475938048371164e-05
-7.302653543907902e-05
-9.231656366826955e-05
-0.00011160659189746003
-0.0001198737468528274
-0.0001198737468528274
-0.00011436231021591582
-0.0001198737468528274
-0.00012538518348973897
-0.0001171180285343716
-0.00010609515526054846
-9.78280003051811e-05
-0.0001171180285343716
-0.00011436231021591582
-0.00011160659189746003
-9.507228198672531e-05
-9.507228198672531e-05
-0.00011436231021591582
-0.00010609515526054846
-0.00010333943694209268
-0.00010333943694209268
-0.00010333943694209268
-8.404940871290214e-05
-7.027081712062322e-05
-8.680512703135793e-05
-0.00010333943694209268
-8.404940871290214e-05
-7.027081712062322e-05
-8.129369039444639e-05
-8.956084534981374e-05
-8.129369039444639e-05
-7.302653543907902e-05
-7.302653543907902e-05
-7.302653543907902e-05
-7.302653543907902e-05
-7.027081712062322e-05
-7.302653543907902e-05
-6.475938048371164e-05
-5.098078889143272e-05
-6.751509880216745e-05
-8.129369039444639e-05
-6.751509880216745e-05
-6.475938048371164e-05
-7.302653543907902e-05
-7.85379720759906e-05
-7.302653543907902e-05
-5.3736507209888505e-05
-3.995791561760957e-05
-2.6179324025330647e-05
-2.6179324025330647e-05
-4.5469352254521147e-05
-6.751509880216745e-05
-7.302653543907902e-05
-7.302653543907902e-05
-7.027081712062322e-05
-8.680512703135793e-05
-9.507228198672531e-05
-9.507228198672531e-05
-8.404940871290214e-05
-8.956084534981374e-05
-8.129369039444639e-05
-8.680512703135793e-05
-0.00010333943694209268
-0.00010333943694209268
-0.00010333943694209268
-9.78280003051811e-05
-8.956084534981374e-05
-9.507228198672531e-05
-9.78280003051811e-05
-0.00011436231021591582
-9.507228198672531e-05
-8.129369039444639e-05
-3.4446478980697995e-05
1.3778591592272275e-06
7.02708171206219e-05
0.0002493925078202481
0.00047536140993362247
0.0006517273823147929
0.0006682616922255276
0.0005304757763027383
0.0003127740291447311
7.578225375753347e-05
-0.00010609515526054846
-0.00020254529640650095
-0.00024388107118333775
-0.0002108124513618684
-0.00018876670481422206
-0.0001777438315403989
-0.00014743093003738526
-0.00015294236667429682
-0.000150186648355841
-0.00014743093003738526
-0.00012538518348973897
-0.00012814090180819475
-0.0001391637750820179
-0.0001364080567635621
-0.00012814090180819475
-0.0001198737468528274
-0.00011436231021591582
-0.0001226294651712832
-0.0001391637750820179
-0.00012814090180819475
-0.0001226294651712832
-0.0001198737468528274
-0.00012538518348973897
-0.0001171180285343716
-9.507228198672531e-05
-0.00010058371862363688
-0.0001171180285343716
-0.00010058371862363688
-9.78280003051811e-05
-0.00010609515526054846
-9.78280003051811e-05
-0.00011160659189746003
-9.78280003051811e-05
-8.956084534981374e-05
-0.00011160659189746003
-0.0001171180285343716
-0.00010058371862363688
-8.680512703135793e-05
-8.956084534981374e-05
-0.00010058371862363688
-0.00010333943694209268
-7.302653543907902e-05
-5.3736507209888505e-05
-5.3736507209888505e-05
-5.098078889143272e-05
-2.8935042343786426e-05
-1.240073243305171e-05
-1.5156450751507488e-05
-1.5156450751507488e-05
-2.6179324025330647e-05
-1.7912169069963278e-05
-6.889295796140132e-06
-2.342360570687485e-05
-2.342360570687485e-05
-3.720219729915378e-05
-3.4446478980697995e-05
-4.2713633936065354e-05
-6.751509880216745e-05
-6.475938048371164e-05
-6.200366216525588e-05
-6.751509880216745e-05
-7.85379720759906e-05
-0.00010609515526054846
-0.0001171180285343716
-0.00010609515526054846
-9.231656366826955e-05
-8.956084534981374e-05
-9.507228198672531e-05
-0.00010885087357900426
-0.00011160659189746003
-0.00011160659189746003
-0.0001171180285343716
-0.0001171180285343716
-0.00011436231021591582
-0.00010609515526054846
-0.00011160659189746003
-0.00011436231021591582
-0.0001171180285343716
-0.0001171180285343716
-0.00011436231021591582
-0.00010333943694209268
-9.78280003051811e-05
-0.00011436231021591582
-0.00012814090180819475
-0.00012814090180819475
-0.00010885087357900426
-0.0001171180285343716
-0.00012814090180819475
-0.0001336523384451063
-0.0001391637750820179
-0.0001391637750820179
-0.00011436231021591582
-9.78280003051811e-05
-0.00010885087357900426
-0.00010333943694209268
-9.78280003051811e-05
-9.507228198672531e-05
-9.78280003051811e-05
-0.00010609515526054846
-0.00010609515526054846
-8.680512703135793e-05
-9.507228198672531e-05
-9.507228198672531e-05
-9.78280003051811e-05
-0.00010058371862363688
-9.78280003051811e-05
-9.78280003051811e-05
-8.680512703135793e-05
-8.404940871290214e-05
-7.85379720759906e-05
-8.680512703135793e-05
-7.85379720759906e-05
-6.751509880216745e-05
-6.751509880216745e-05
-5.9247943846800084e-05
-5.9247943846800084e-05
-6.200366216525588e-05
-5.3736507209888505e-05
-7.302653543907902e-05
-5.9247943846800084e-05
-6.200366216525588e-05
-6.475938048371164e-05
-6.475938048371164e-05
-7.302653543907902e-05
-7.85379720759906e-05
-7.57822537575348e-05
-7.027081712062322e-05
-7.302653543907902e-05
-8.680512703135793e-05
-9.78280003051811e-05
-8.680512703135793e-05
-7.57822537575348e-05
-8.129369039444639e-05
-9.231656366826955e-05
-8.680512703135793e-05
-0.00010058371862363688
-0.00010058371862363688
-0.00010609515526054846
-0.00010058371862363688
-0.00010333943694209268
-0.00011160659189746003
-6.751509880216745e-05
-5.3736507209888505e-05
-3.4446478980697995e-05
3.444647898069667e-05
0.00012814090180819342
0.00029623971923399637
0.0005497658045319286
0.000767467551689936
0.0008694291294728002
0.0007564446784161128
0.0004863842832074457
0.00016672095826657444
-7.027081712062322e-05
-0.0001612095216296642
-0.00016396523994811996
-0.000150186648355841
-0.000150186648355841
-0.0001391637750820179
-0.0001198737468528274
-0.0001198737468528274
-0.0001364080567635621
-0.00012814090180819475
-0.00010609515526054846
-0.00011436231021591582
-0.00012814090180819475
-0.0001171180285343716
-0.00010058371862363688
-9.78280003051811e-05
-0.00010885087357900426
-0.00010885087357900426
-0.0001226294651712832
-0.00011436231021591582
-0.00010885087357900426
-8.404940871290214e-05
-8.404940871290214e-05
-9.78280003051811e-05
-8.680512703135793e-05
-7.302653543907902e-05
-7.027081712062322e-05
-8.956084534981374e-05
-0.00010609515526054846
-0.00011160659189746003
-8.129369039444639e-05
-9.231656366826955e-05
-8.680512703135793e-05
-8.404940871290214e-05
-0.00010058371862363688
-8.404940871290214e-05
-5.9247943846800084e-05
-5.9247943846800084e-05
-4.5469352254521147e-05
-3.4446478980697995e-05
-2.6179324025330647e-05
-2.066788738841907e-05
-2.342360570687485e-05
-2.342360570687485e-05
-6.889295796140132e-06
1.7912169069961946e-05
1.3778591592272275e-06
4.133577477683014e-06
1.5156450751506162e-05
1.5156450751506162e-05
9.64501411459459e-06
4.133577477683014e-06
1.3778591592272275e-06
-4.133577477684346e-06
-6.889295796140132e-06
-4.133577477684346e-06
-6.889295796140132e-06
-2.066788738841907e-05
-2.8935042343786426e-05
-2.8935042343786426e-05
-3.169076066224221e-05
-2.8935042343786426e-05
-3.995791561760957e-05
-4.5469352254521147e-05
-4.2713633936065354e-05
-3.720219729915378e-05
-3.4446478980697995e-05
-4.8225070572976926e-05
-6.475938048371164e-05
-6.751509880216745e-05
-5.9247943846800084e-05
-6.751509880216745e-05
-6.200366216525588e-05
-4.8225070572976926e-05
-6.475938048371164e-05
-6.751509880216745e-05
-6.200366216525588e-05
-6.200366216525588e-05
-7.302653543907902e-05
-6.751509880216745e-05
-7.302653543907902e-05
-7.027081712062322e-05
-5.6492225528344285e-05
-5.3736507209888505e-05
-3.720219729915378e-05
-4.5469352254521147e-05
-6.200366216525588e-05
-7.027081712062322e-05
-8.680512703135793e-05
-0.00010333943694209268
-9.231656366826955e-05
-5.9247943846800084e-05
-3.720219729915378e-05
-5.6492225528344285e-05
-6.200366216525588e-05
-3.995791561760957e-05
-3.995791561760957e-05
-3.169076066224221e-05
-4.2713633936065354e-05
-6.475938048371164e-05
-6.200366216525588e-05
-3.995791561760957e-05
-4.5469352254521147e-05
-4.2713633936065354e-05
-4.5469352254521147e-05
-3.4446478980697995e-05
-3.4446478980697995e-05
-1.5156450751507488e-05
-9.64501411459592e-06
-2.8935042343786426e-05
-4.2713633936065354e-05
-4.8225070572976926e-05
-2.8935042343786426e-05
-2.6179324025330647e-05
-2.8935042343786426e-05
-1.5156450751507488e-05
-9.64501411459592e-06
1.3778591592272275e-06
-6.889295796140132e-06
6.8892957961388014e-06
1.3778591592272275e-06
1.2400732433050376e-05
2.8935042343785094e-05
1.7912169069961946e-05
4.133577477683014e-06
-2.066788738841907e-05
-3.720219729915378e-05
-2.6179324025330647e-05
-2.066788738841907e-05
-3.169076066224221e-05
-4.8225070572976926e-05
-5.098078889143272e-05
-5.098078889143272e-05
-4.8225070572976926e-05
-6.475938048371164e-05
-5.6492225528344285e-05
-4.2713633936065354e-05
-6.200366216525588e-05
-4.5469352254521147e-05
-5.9247943846800084e-05
-4.8225070572976926e-05
-2.342360570687485e-05
-1.240073243305171e-05
1.3778591592272275e-06
3.9957915617608246e-05
0.00013089662012664922
0.0003072625925078196
0.0005635443961242077
0.00081707048142214
0.0009410778057526506
0.0008694291294728002
0.0006241701991302349
0.0003127740291447311
3.444647898069667e-05
-0.00012538518348973897
-0.00015569808499275262
-0.0001391637750820179
-0.00012538518348973897
-0.00010058371862363688
-8.680512703135793e-05
-9.78280003051811e-05
-0.00010333943694209268
-8.680512703135793e-05
-6.751509880216745e-05
-7.85379720759906e-05
-9.231656366826955e-05
-6.751509880216745e-05
-5.6492225528344285e-05
-5.9247943846800084e-05
-7.302653543907902e-05
-8.129369039444639e-05
-5.9247943846800084e-05
-5.3736507209888505e-05
-3.995791561760957e-05
-4.8225070572976926e-05
-5.3736507209888505e-05
-5.6492225528344285e-05
-7.85379720759906e-05
-7.57822537575348e-05
-5.9247943846800084e-05
-4.2713633936065354e-05
-4.8225070572976926e-05
-4.5469352254521147e-05
-5.9247943846800084e-05
-6.200366216525588e-05
-4.2713633936065354e-05
-3.720219729915378e-05
-3.995791561760957e-05
-2.8935042343786426e-05
-3.169076066224221e-05
-2.8935042343786426e-05
-1.7912169069963278e-05
-2.066788738841907e-05
-6.889295796140132e-06
-1.377859159228559e-06
-1.240073243305171e-05
-1.377859159228559e-06
1.2400732433050376e-05
2.066788738841773e-05
3.444647898069667e-05
5.098078889143139e-05
5.373650720988717e-05
3.720219729915245e-05
5.098078889143139e-05
7.30265354390777e-05
7.30265354390777e-05
6.200366216525454e-05
3.444647898069667e-05
1.7912169069961946e-05
1.2400732433050376e-05
4.133577477683014e-06
-4.133577477684346e-06
6.8892957961388014e-06
-1.5156450751507488e-05
-1.240073243305171e-05
1.3778591592272275e-06
4.133577477683014e-06
-2.066788738841907e-05
-3.995791561760957e-05
-3.169076066224221e-05
-2.6179324025330647e-05
-4.2713633936065354e-05
-4.5469352254521147e-05
-4.5469352254521147e-05
-2.8935042343786426e-05
-1.7912169069963278e-05
-2.6179324025330647e-05
-3.169076066224221e-05
-5.098078889143272e-05
-5.3736507209888505e-05
-4.5469352254521147e-05
-5.3736507209888505e-05
-4.8225070572976926e-05
-3.995791561760957e-05
-3.169076066224221e-05
-1.5156450751507488e-05
-1.7912169069963278e-05
-5.3736507209888505e-05
-6.751509880216745e-05
-6.751509880216745e-05
-4.8225070572976926e-05
-2.8935042343786426e-05
-3.995791561760957e-05
-6.200366216525588e-05
-5.9247943846800084e-05
-5.098078889143272e-05
-4.2713633936065354e-05
-5.098078889143272e-05
-5.3736507209888505e-05
-4.5469352254521147e-05
-3.4446478980697995e-05
-2.342360570687485e-05
-2.6179324025330647e-05
-2.8935042343786426e-05
-3.720219729915378e-05
-2.342360570687485e-05
-9.64501411459592e-06
-2.066788738841907e-05
-4.5469352254521147e-05
-4.8225070572976926e-05
-4.2713633936065354e-05
-4.8225070572976926e-05
-9.64501411459592e-06
-1.7912169069963278e-05
-4.2713633936065354e-05
-3.995791561760957e-05
-6.889295796140132e-06
-2.066788738841907e-05
-9.64501411459592e-06
6.8892957961388014e-06
2.066788738841773e-05
1.5156450751506162e-05
6.8892957961388014e-06
2.066788738841773e-05
3.720219729915245e-05
3.720219729915245e-05
2.8935042343785094e-05
3.169076066224089e-05
4.133577477683014e-06
-6.889295796140132e-06
-2.066788738841907e-05
-9.64501411459592e-06
-1.7912169069963278e-05
-3.4446478980697995e-05
-4.8225070572976926e-05
-3.720219729915378e-05
-2.8935042343786426e-05
-2.6179324025330647e-05
-2.066788738841907e-05
-1.7912169069963278e-05
-2.6179324025330647e-05
-1.7912169069963278e-05
-3.169076066224221e-05
-3.995791561760957e-05
-3.4446478980697995e-05
-3.720219729915378e-05
1.3778591592272275e-06
1.5156450751506162e-05
4.271363393606403e-05
0.00014467521171892812
0.00032104118410009855
0.0005828344243533982
0.0008611619745174325
0.0010154822003509568
0.000960367833981841
0.000717864621957732
0.00037064411383230263
5.373650720988717e-05
-0.00010609515526054846
-0.00014191949340047367
-0.0001198737468528274
-8.680512703135793e-05
-5.3736507209888505e-05
-5.3736507209888505e-05
-7.57822537575348e-05
-7.85379720759906e-05
-5.098078889143272e-05
-4.8225070572976926e-05
-4.8225070572976926e-05
-7.302653543907902e-05
-6.200366216525588e-05
-4.2713633936065354e-05
-4.5469352254521147e-05
-8.129369039444639e-05
-8.680512703135793e-05
-7.85379720759906e-05
-6.475938048371164e-05
-4.8225070572976926e-05
-5.098078889143272e-05
-5.098078889143272e-05
-2.8935042343786426e-05
-3.995791561760957e-05
-5.098078889143272e-05
-3.995791561760957e-05
-3.720219729915378e-05
-2.6179324025330647e-05
-3.4446478980697995e-05
-4.8225070572976926e-05
-2.342360570687485e-05
-1.5156450751507488e-05
-2.8935042343786426e-05
-4.5469352254521147e-05
-3.169076066224221e-05
-1.5156450751507488e-05
-1.240073243305171e-05
-1.5156450751507488e-05
-1.7912169069963278e-05
-1.377859159228559e-06
9.64501411459459e-06
1.2400732433050376e-05
3.169076066224089e-05
2.3423605706873515e-05
3.444647898069667e-05
3.720219729915245e-05
5.9247943846798756e-05
5.9247943846798756e-05
4.546935225451981e-05
5.9247943846798756e-05
6.751509880216611e-05
6.751509880216611e-05
8.404940871290084e-05
7.578225375753347e-05
3.9957915617608246e-05
2.8935042343785094e-05
2.8935042343785094e-05
4.271363393606403e-05
3.720219729915245e-05
1.5156450751506162e-05
1.7912169069961946e-05
1.5156450751506162e-05
6.8892957961388014e-06
9.64501411459459e-06
-1.240073243305171e-05
-2.8935042343786426e-05
-2.6179324025330647e-05
-3.4446478980697995e-05
-4.2713633936065354e-05
-3.720219729915378e-05
-2.6179324025330647e-05
-2.342360570687485e-05
-2.066788738841907e-05
-3.169076066224221e-05
-4.8225070572976926e-05
-3.720219729915378e-05
-4.5469352254521147e-05
-4.2713633936065354e-05
-3.995791561760957e-05
-3.995791561760957e-05
-3.4446478980697995e-05
-5.6492225528344285e-05
-4.5469352254521147e-05
-5.098078889143272e-05
-5.3736507209888505e-05
-5.3736507209888505e-05
-5.6492225528344285e-05
-7.302653543907902e-05
-6.475938048371164e-05
-4.2713633936065354e-05
-2.8935042343786426e-05
-3.169076066224221e-05
-2.6179324025330647e-05
-3.169076066224221e-05
-3.995791561760957e-05
-2.8935042343786426e-05
-2.342360570687485e-05
-3.720219729915378e-05
-4.2713633936065354e-05
-4.8225070572976926e-05
-3.169076066224221e-05
-2.066788738841907e-05
-3.720219729915378e-05
-4.8225070572976926e-05
-4.8225070572976926e-05
-3.4446478980697995e-05
-3.169076066224221e-05
-3.995791561760957e-05
-2.8935042343786426e-05
-1.7912169069963278e-05
-2.8935042343786426e-05
-1.5156450751507488e-05
-1.377859159228559e-06
1.3778591592272275e-06
9.64501411459459e-06
9.64501411459459e-06
-6.889295796140132e-06
-2.066788738841907e-05
-2.6179324025330647e-05
-1.5156450751507488e-05
4.133577477683014e-06
9.64501411459459e-06
-9.64501411459592e-06
-3.169076066224221e-05
-2.6179324025330647e-05
4.133577477683014e-06
6.8892957961388014e-06
-6.889295796140132e-06
-2.8935042343786426e-05
-5.6492225528344285e-05
-5.098078889143272e-05
-3.995791561760957e-05
-4.5469352254521147e-05
-4.5469352254521147e-05
-4.2713633936065354e-05
-3.995791561760957e-05
-3.169076066224221e-05
-3.4446478980697995e-05
-2.8935042343786426e-05
-2.6179324025330647e-05
-3.169076066224221e-05
-3.4446478980697995e-05
-1.240073243305171e-05
6.8892957961388014e-06
3.444647898069667e-05
8.129369039444505e-05
0.00018876670481422076
0.0004092241702906837
0.000701330312046997
0.0009162763408865484
0.0009328106507972832
0.0007592003967345686
0.0004450485084306089
0.00013089662012664922
-7.027081712062322e-05
-0.00014191949340047367
-0.0001364080567635621
-0.00011436231021591582
-9.507228198672531e-05
-8.129369039444639e-05
-8.680512703135793e-05
-8.680512703135793e-05
-7.302653543907902e-05
-5.3736507209888505e-05
-5.3736507209888505e-05
-6.475938048371164e-05
-6.200366216525588e-05
-6.475938048371164e-05
-7.57822537575348e-05
-6.475938048371164e-05
-7.027081712062322e-05
-6.200366216525588e-05
-5.9247943846800084e-05
-4.5469352254521147e-05
-3.720219729915378e-05
-3.720219729915378e-05
-3.169076066224221e-05
-1.7912169069963278e-05
-3.169076066224221e-05
-4.8225070572976926e-05
-4.8225070572976926e-05
-4.8225070572976926e-05
-2.8935042343786426e-05
-1.5156450751507488e-05
-2.342360570687485e-05
-3.4446478980697995e-05
-3.4446478980697995e-05
-2.8935042343786426e-05
-3.4446478980697995e-05
-2.342360570687485e-05
-1.7912169069963278e-05
-9.64501411459592e-06
-9.64501411459592e-06
-1.377859159228559e-06
6.8892957961388014e-06
1.7912169069961946e-05
2.3423605706873515e-05
2.8935042343785094e-05
3.720219729915245e-05
3.169076066224089e-05
2.6179324025329308e-05
3.720219729915245e-05
7.30265354390777e-05
8.404940871290084e-05
6.751509880216611e-05
3.720219729915245e-05
3.9957915617608246e-05
6.475938048371032e-05
3.9957915617608246e-05
1.5156450751506162e-05
1.2400732433050376e-05
1.3778591592272275e-06
-4.133577477684346e-06
-6.889295796140132e-06
-1.7912169069963278e-05
-2.342360570687485e-05
-2.066788738841907e-05
-2.8935042343786426e-05
-2.8935042343786426e-05
-3.169076066224221e-05
-2.8935042343786426e-05
-2.066788738841907e-05
-3.4446478980697995e-05
-3.995791561760957e-05
-3.169076066224221e-05
-2.6179324025330647e-05
-4.2713633936065354e-05
-4.8225070572976926e-05
-4.2713633936065354e-05
-5.3736507209888505e-05
-5.9247943846800084e-05
-4.2713633936065354e-05
-4.2713633936065354e-05
-5.6492225528344285e-05
-6.475938048371164e-05
-5.3736507209888505e-05
-5.3736507209888505e-05
-5.6492225528344285e-05
-3.720219729915378e-05
-3.720219729915378e-05
-5.3736507209888505e-05
-5.3736507209888505e-05
-4.8225070572976926e-05
-4.5469352254521147e-05
-4.2713633936065354e-05
-4.8225070572976926e-05
-3.4446478980697995e-05
-2.8935042343786426e-05
-2.6179324025330647e-05
-2.8935042343786426e-05
-2.342360570687485e-05
-2.066788738841907e-05
-3.4446478980697995e-05
-1.5156450751507488e-05
-9.64501411459592e-06
-1.240073243305171e-05
-1.5156450751507488e-05
-9.64501411459592e-06
-1.5156450751507488e-05
-2.342360570687485e-05
-2.342360570687485e-05
-6.889295796140132e-06
-1.5156450751507488e-05
-1.5156450751507488e-05
-1.5156450751507488e-05
-1.240073243305171e-05
6.8892957961388014e-06
1.5156450751506162e-05
1.2400732433050376e-05
2.066788738841773e-05
6.8892957961388014e-06
1.2400732433050376e-05
1.3778591592272275e-06
1.3778591592272275e-06
1.7912169069961946e-05
1.2400732433050376e-05
9.64501411459459e-06
6.8892957961388014e-06
1.2400732433050376e-05
2.6179324025329308e-05
1.5156450751506162e-05
1.7912169069961946e-05
2.8935042343785094e-05
1.7912169069961946e-05
1.3778591592272275e-06
-4.133577477684346e-06
-2.342360570687485e-05
-3.4446478980697995e-05
-3.169076066224221e-05
-3.169076066224221e-05
-1.240073243305171e-05
-2.6179324025330647e-05
-3.169076066224221e-05
-2.342360570687485e-05
-4.133577477684346e-06
-1.377859159228559e-06
-1.377859159228559e-06
-1.377859159228559e-06
2.3423605706873515e-05
6.200366216525454e-05
9.782800030517979e-05
0.00016120952162966288
0.000301751155870908
0.0005359872129396498
0.0007702232700083917
0.0007399103685053779
0.0005029185931181804
0.0002190796063172344
1.3778591592272275e-06
-0.00010058371862363688
-0.00012814090180819475
-0.00013089662012665053
-0.00011160659189746003
-8.680512703135793e-05
-8.129369039444639e-05
-8.129369039444639e-05
-7.57822537575348e-05
-9.507228198672531e-05
-9.507228198672531e-05
-6.475938048371164e-05
-6.200366216525588e-05
-6.200366216525588e-05
-5.9247943846800084e-05
-7.027081712062322e-05
-5.6492225528344285e-05
-6.475938048371164e-05
-7.85379720759906e-05
-7.85379720759906e-05
-7.027081712062322e-05
-6.751509880216745e-05
-5.3736507209888505e-05
-3.995791561760957e-05
-5.098078889143272e-05
-5.9247943846800084e-05
-5.6492225528344285e-05
-4.2713633936065354e-05
-3.169076066224221e-05
-3.720219729915378e-05
-3.169076066224221e-05
-3.720219729915378e-05
-5.3736507209888505e-05
-4.5469352254521147e-05
-3.4446478980697995e-05
-5.6492225528344285e-05
-5.098078889143272e-05
-3.169076066224221e-05
-4.5469352254521147e-05
-3.169076066224221e-05
-2.066788738841907e-05
-6.889295796140132e-06
-1.377859159228559e-06
-1.377859159228559e-06
1.5156450751506162e-05
1.2400732433050376e-05
6.8892957961388014e-06
1.5156450751506162e-05
2.8935042343785094e-05
2.8935042343785094e-05
1.2400732433050376e-05
1.2400732433050376e-05
2.6179324025329308e-05
2.8935042343785094e-05
1.2400732433050376e-05
1.3778591592272275e-06
-4.133577477684346e-06
-4.133577477684346e-06
-1.377859159228559e-06
-9.64501411459592e-06
-1.7912169069963278e-05
-1.5156450751507488e-05
-1.5156450751507488e-05
-3.720219729915378e-05
-5.6492225528344285e-05
-6.751509880216745e-05
-6.475938048371164e-05
-6.751509880216745e-05
-7.027081712062322e-05
-7.302653543907902e-05
-7.302653543907902e-05
-8.956084534981374e-05
-0.00010058371862363688
-6.475938048371164e-05
-4.5469352254521147e-05
-7.027081712062322e-05
-6.200366216525588e-05
-6.200366216525588e-05
-6.200366216525588e-05
-6.475938048371164e-05
-6.751509880216745e-05
-8.404940871290214e-05
-8.680512703135793e-05
-7.85379720759906e-05
-9.507228198672531e-05
-9.507228198672531e-05
-0.00010058371862363688
-0.00010609515526054846
-8.680512703135793e-05
-8.404940871290214e-05
-8.404940871290214e-05
-9.231656366826955e-05
-8.680512703135793e-05
-5.098078889143272e-05
-5.098078889143272e-05
-7.85379720759906e-05
-7.85379720759906e-05
-7.302653543907902e-05
-7.302653543907902e-05
-5.9247943846800084e-05
-4.8225070572976926e-05
-4.8225070572976926e-05
-5.3736507209888505e-05
-4.8225070572976926e-05
-4.8225070572976926e-05
-3.4446478980697995e-05
-3.995791561760957e-05
-3.720219729915378e-05
-3.169076066224221e-05
-3.169076066224221e-05
-5.098078889143272e-05
-4.5469352254521147e-05
-4.5469352254521147e-05
-4.5469352254521147e-05
-2.342360570687485e-05
-1.5156450751507488e-05
-1.240073243305171e-05
-2.342360570687485e-05
-1.7912169069963278e-05
-2.8935042343786426e-05
-3.4446478980697995e-05
-2.6179324025330647e-05
-3.995791561760957e-05
-4.8225070572976926e-05
-2.6179324025330647e-05
4.133577477683014e-06
-1.377859159228559e-06
-5.6492225528344285e-05
-4.2713633936065354e-05
-6.200366216525588e-05
-5.6492225528344285e-05
-5.6492225528344285e-05
-6.751509880216745e-05
-6.475938048371164e-05
-4.2713633936065354e-05
-3.995791561760957e-05
-3.169076066224221e-05
-6.200366216525588e-05
-8.680512703135793e-05
-8.129369039444639e-05
-7.027081712062322e-05
-6.475938048371164e-05
-6.200366216525588e-05
-6.751509880216745e-05
-5.9247943846800084e-05
-3.169076066224221e-05
2.066788738841773e-05
9.782800030517979e-05
0.00020530101472495543
0.00042024704356450677
0.0006903074387731741
0.000855650537880521
0.0008225819180590517
0.0006214144808117793
0.00034584264896620056
5.649222552834297e-05
-0.00010333943694209268
-0.0001612095216296642
-0.00015294236667429682
-0.00013089662012665053
-0.00013089662012665053
-0.00010609515526054846
-0.0001171180285343716
-0.00012538518348973897
-0.0001226294651712832
-0.00011436231021591582
-7.85379720759906e-05
-6.200366216525588e-05
-7.85379720759906e-05
-7.85379720759906e-05
-7.85379720759906e-05
-8.404940871290214e-05
-8.129369039444639e-05
-8.680512703135793e-05
-9.231656366826955e-05
-8.404940871290214e-05
-6.475938048371164e-05
-7.302653543907902e-05
-7.85379720759906e-05
-8.404940871290214e-05
-5.9247943846800084e-05
-5.9247943846800084e-05
-4.8225070572976926e-05
-3.720219729915378e-05
-3.720219729915378e-05
-4.8225070572976926e-05
-7.302653543907902e-05
-7.027081712062322e-05
-6.751509880216745e-05
-5.9247943846800084e-05
-4.8225070572976926e-05
-3.720219729915378e-05
-4.5469352254521147e-05
-2.6179324025330647e-05
-1.5156450751507488e-05
6.8892957961388014e-06
1.7912169069961946e-05
-6.889295796140132e-06
-2.066788738841907e-05
-2.066788738841907e-05
-6.889295796140132e-06
1.5156450751506162e-05
3.169076066224089e-05
3.169076066224089e-05
2.8935042343785094e-05
3.444647898069667e-05
3.444647898069667e-05
3.720219729915245e-05
3.169076066224089e-05
3.720219729915245e-05
2.8935042343785094e-05
1.3778591592272275e-06
-1.240073243305171e-05
1.3778591592272275e-06
1.2400732433050376e-05
-6.889295796140132e-06
-1.240073243305171e-05
-2.066788738841907e-05
-3.720219729915378e-05
-3.4446478980697995e-05
-2.8935042343786426e-05
-3.4446478980697995e-05
-3.995791561760957e-05
-3.720219729915378e-05
-3.4446478980697995e-05
-3.169076066224221e-05
-3.995791561760957e-05
-4.8225070572976926e-05
-3.720219729915378e-05
-3.720219729915378e-05
-5.6492225528344285e-05
-3.995791561760957e-05
-2.342360570687485e-05
-2.6179324025330647e-05
-2.8935042343786426e-05
-3.169076066224221e-05
-4.8225070572976926e-05
-4.8225070572976926e-05
-4.2713633936065354e-05
-2.342360570687485e-05
-4.2713633936065354e-05
-5.3736507209888505e-05
-5.098078889143272e-05
-5.6492225528344285e-05
-4.2713633936065354e-05
-5.6492225528344285e-05
-5.6492225528344285e-05
-5.9247943846800084e-05
-5.098078889143272e-05
-3.720219729915378e-05
-2.8935042343786426e-05
-3.995791561760957e-05
-3.4446478980697995e-05
-4.5469352254521147e-05
-4.2713633936065354e-05
-2.342360570687485e-05
-1.240073243305171e-05
-1.240073243305171e-05
-1.7912169069963278e-05
-1.240073243305171e-05
-4.133577477684346e-06
-2.066788738841907e-05
-2.342360570687485e-05
-4.133577477684346e-06
-4.133577477684346e-06
-1.240073243305171e-05
-2.066788738841907e-05
4.133577477683014e-06
4.133577477683014e-06
-1.377859159228559e-06
6.8892957961388014e-06
6.8892957961388014e-06
4.133577477683014e-06
1.5156450751506162e-05
9.64501411459459e-06
6.8892957961388014e-06
1.2400732433050376e-05
4.133577477683014e-06
1.7912169069961946e-05
2.8935042343785094e-05
2.6179324025329308e-05
1.5156450751506162e-05
1.7912169069961946e-05
6.8892957961388014e-06
4.133577477683014e-06
-9.64501411459592e-06
-2.066788738841907e-05
-1.377859159228559e-06
-4.133577477684346e-06
-1.240073243305171e-05
-2.6179324025330647e-05
-5.098078889143272e-05
-4.5469352254521147e-05
-3.169076066224221e-05
-2.066788738841907e-05
-4.133577477684346e-06
-1.240073243305171e-05
-1.5156450751507488e-05
-1.240073243305171e-05
-9.64501411459592e-06
-4.133577477684346e-06
-1.5156450751507488e-05
6.8892957961388014e-06
8.129369039444505e-05
0.00018876670481422076
0.0003430869306477448
0.0005911015793087656
0.000855650537880521
0.0009658792706187528
0.000896986312657358
0.0006599945372701603
0.0003182854657816428
2.066788738841773e-05
-9.231656366826955e-05
-0.0001171180285343716
-0.0001171180285343716
-9.231656366826955e-05
-6.751509880216745e-05
-5.098078889143272e-05
-7.302653543907902e-05
-9.78280003051811e-05
-7.302653543907902e-05
-6.475938048371164e-05
-5.9247943846800084e-05
-5.098078889143272e-05
-5.9247943846800084e-05
-6.200366216525588e-05
-6.751509880216745e-05
-4.8225070572976926e-05
-5.098078889143272e-05
-3.4446478980697995e-05
-1.7912169069963278e-05
-2.066788738841907e-05
-5.098078889143272e-05
-5.9247943846800084e-05
-5.098078889143272e-05
-5.3736507209888505e-05
-3.995791561760957e-05
-3.169076066224221e-05
-2.8935042343786426e-05
-3.4446478980697995e-05
-3.995791561760957e-05
-2.8935042343786426e-05
-3.995791561760957e-05
-3.995791561760957e-05
-4.2713633936065354e-05
-3.995791561760957e-05
-1.7912169069963278e-05
-6.889295796140132e-06
-9.64501411459592e-06
-9.64501411459592e-06
-1.377859159228559e-06
-4.133577477684346e-06
-6.889295796140132e-06
4.133577477683014e-06
9.64501411459459e-06
3.9957915617608246e-05
4.546935225451981e-05
5.373650720988717e-05
6.475938048371032e-05
6.751509880216611e-05
8.129369039444505e-05
7.578225375753347e-05
5.9247943846798756e-05
5.373650720988717e-05
4.546935225451981e-05
3.169076066224089e-05
3.720219729915245e-05
4.271363393606403e-05
2.6179324025329308e-05
2.3423605706873515e-05
1.5156450751506162e-05
4.133577477683014e-06
1.3778591592272275e-06
-1.240073243305171e-05
-2.8935042343786426e-05
-1.5156450751507488e-05
4.133577477683014e-06
9.64501411459459e-06
-1.240073243305171e-05
-2.342360570687485e-05
-2.342360570687485e-05
-3.169076066224221e-05
-3.4446478980697995e-05
-3.995791561760957e-05
-3.4446478980697995e-05
-1.5156450751507488e-05
-1.5156450751507488e-05
-2.066788738841907e-05
-3.995791561760957e-05
-3.169076066224221e-05
-3.995791561760957e-05
-3.995791561760957e-05
-2.6179324025330647e-05
-2.066788738841907e-05
-3.169076066224221e-05
-4.5469352254521147e-05
-4.8225070572976926e-05
-3.4446478980697995e-05
-3.169076066224221e-05
-3.4446478980697995e-05
-2.8935042343786426e-05
-2.6179324025330647e-05
-2.6179324025330647e-05
-4.2713633936065354e-05
-3.995791561760957e-05
-2.8935042343786426e-05
-3.995791561760957e-05
-4.5469352254521147e-05
-4.2713633936065354e-05
-2.6179324025330647e-05
-3.995791561760957e-05
-3.4446478980697995e-05
-1.240073243305171e-05
-1.7912169069963278e-05
-1.7912169069963278e-05
-1.240073243305171e-05
-6.889295796140132e-06
-1.7912169069963278e-05
-2.066788738841907e-05
-6.889295796140132e-06
-1.240073243305171e-05
4.133577477683014e-06
1.3778591592272275e-06
-6.889295796140132e-06
2.066788738841773e-05
2.066788738841773e-05
-4.133577477684346e-06
-2.066788738841907e-05
-2.6179324025330647e-05
-1.377859159228559e-06
1.3778591592272275e-06
4.133577477683014e-06
1.5156450751506162e-05
1.3778591592272275e-06
-1.377859159228559e-06
1.3778591592272275e-06
2.066788738841773e-05
3.169076066224089e-05
1.7912169069961946e-05
1.5156450751506162e-05
1.7912169069961946e-05
3.720219729915245e-05
2.066788738841773e-05
4.133577477683014e-06
-1.240073243305171e-05
-2.066788738841907e-05
-1.7912169069963278e-05
-1.7912169069963278e-05
-2.342360570687485e-05
-2.8935042343786426e-05
-4.2713633936065354e-05
-2.8935042343786426e-05
-1.240073243305171e-05
-1.7912169069963278e-05
-4.133577477684346e-06
-6.889295796140132e-06
-6.889295796140132e-06
-6.889295796140132e-06
6.8892957961388014e-06
3.444647898069667e-05
7.30265354390777e-05
0.00018049954985885336
0.00038993414206149314
0.0006737731288624392
0.0009438335240711064
0.001048550820172426
0.0009355663691157388
0.0006269259174486908
0.0002576596627756154
-4.133577477684346e-06
-0.00010609515526054846
-0.00010333943694209268
-9.78280003051811e-05
-9.231656366826955e-05
-8.404940871290214e-05
-5.9247943846800084e-05
-7.302653543907902e-05
-7.027081712062322e-05
-4.5469352254521147e-05
-5.098078889143272e-05
-4.5469352254521147e-05
-3.995791561760957e-05
-3.4446478980697995e-05
-6.475938048371164e-05
-6.751509880216745e-05
-4.8225070572976926e-05
-3.169076066224221e-05
-2.342360570687485e-05
-3.4446478980697995e-05
-3.995791561760957e-05
-4.5469352254521147e-05
-5.098078889143272e-05
-4.5469352254521147e-05
-2.8935042343786426e-05
-5.6492225528344285e-05
-5.9247943846800084e-05
-4.5469352254521147e-05
-3.720219729915378e-05
-3.720219729915378e-05
-4.2713633936065354e-05
-3.169076066224221e-05
-9.64501411459592e-06
-9.64501411459592e-06
-2.066788738841907e-05
-1.5156450751507488e-05
-2.8935042343786426e-05
-2.6179324025330647e-05
-4.133577477684346e-06
-1.377859159228559e-06
-1.377859159228559e-06
4.133577477683014e-06
2.066788738841773e-05
2.3423605706873515e-05
3.9957915617608246e-05
7.853797207598924e-05
7.853797207598924e-05
6.751509880216611e-05
5.9247943846798756e-05
4.82250705729756e-05
5.098078889143139e-05
5.373650720988717e-05
6.751509880216611e-05
7.02708171206219e-05
5.373650720988717e-05
4.546935225451981e-05
5.098078889143139e-05
4.546935225451981e-05
2.3423605706873515e-05
2.8935042343785094e-05
2.6179324025329308e-05
1.2400732433050376e-05
1.5156450751506162e-05
1.5156450751506162e-05
6.8892957961388014e-06
-1.7912169069963278e-05
-1.240073243305171e-05
-2.8935042343786426e-05
-3.169076066224221e-05
-9.64501411459592e-06
-1.7912169069963278e-05
-2.342360570687485e-05
-3.4446478980697995e-05
-2.8935042343786426e-05
-3.169076066224221e-05
-2.8935042343786426e-05
-3.4446478980697995e-05
-3.720219729915378e-05
-3.720219729915378e-05
-3.4446478980697995e-05
-3.720219729915378e-05
-4.2713633936065354e-05
-3.4446478980697995e-05
-2.066788738841907e-05
-1.5156450751507488e-05
-1.5156450751507488e-05
-2.342360570687485e-05
-4.2713633936065354e-05
-4.2713633936065354e-05
-3.995791561760957e-05
-2.6179324025330647e-05
-3.169076066224221e-05
-2.6179324025330647e-05
-3.720219729915378e-05
-5.9247943846800084e-05
-5.9247943846800084e-05
-3.4446478980697995e-05
-3.4446478980697995e-05
-3.4446478980697995e-05
-4.5469352254521147e-05
-3.169076066224221e-05
-2.066788738841907e-05
-2.066788738841907e-05
-2.6179324025330647e-05
-2.342360570687485e-05
-1.240073243305171e-05
-3.169076066224221e-05
-2.342360570687485e-05
-2.342360570687485e-05
-1.377859159228559e-06
-2.6179324025330647e-05
-9.64501411459592e-06
-4.133577477684346e-06
-6.889295796140132e-06
-9.64501411459592e-06
-1.240073243305171e-05
-9.64501411459592e-06
-1.5156450751507488e-05
-1.5156450751507488e-05
6.8892957961388014e-06
1.5156450751506162e-05
9.64501411459459e-06
-6.889295796140132e-06
4.133577477683014e-06
2.066788738841773e-05
1.2400732433050376e-05
4.133577477683014e-06
-4.133577477684346e-06
6.8892957961388014e-06
6.8892957961388014e-06
1.2400732433050376e-05
-1.377859159228559e-06
-1.240073243305171e-05
-1.240073243305171e-05
-2.342360570687485e-05
-4.133577477684346e-06
-1.5156450751507488e-05
-3.4446478980697995e-05
-3.720219729915378e-05
-4.5469352254521147e-05
-2.6179324025330647e-05
-3.995791561760957e-05
-4.5469352254521147e-05
-3.169076066224221e-05
-3.169076066224221e-05
-3.4446478980697995e-05
-3.995791561760957e-05
-1.7912169069963278e-05
1.5156450751506162e-05
2.8935042343785094e-05
6.200366216525454e-05
0.00011987374685282605
0.0002493925078202481
0.0004918957198443572
0.0007895132982375822
0.0009576121156633854
0.0009190320592050041
0.0006820402838178067
0.000340331212329289
6.200366216525454e-05
-7.85379720759906e-05
-0.00011436231021591582
-0.00010333943694209268
-9.78280003051811e-05
-9.231656366826955e-05
-0.00010333943694209268
-8.680512703135793e-05
-7.57822537575348e-05
-8.129369039444639e-05
-7.027081712062322e-05
-6.475938048371164e-05
-6.200366216525588e-05
-6.200366216525588e-05
-6.751509880216745e-05
-7.027081712062322e-05
-3.4446478980697995e-05
-2.8935042343786426e-05
-4.5469352254521147e-05
-7.302653543907902e-05
-6.475938048371164e-05
-5.098078889143272e-05
-5.098078889143272e-05
-5.3736507209888505e-05
-5.3736507209888505e-05
-5.6492225528344285e-05
-4.8225070572976926e-05
-5.3736507209888505e-05
-4.5469352254521147e-05
-2.342360570687485e-05
-2.6179324025330647e-05
-9.64501411459592e-06
-2.066788738841907e-05
-2.6179324025330647e-05
-2.342360570687485e-05
-1.7912169069963278e-05
-4.133577477684346e-06
-9.64501411459592e-06
-1.5156450751507488e-05
-9.64501411459592e-06
-1.377859159228559e-06
1.5156450751506162e-05
3.169076066224089e-05
3.444647898069667e-05
3.169076066224089e-05
2.8935042343785094e-05
3.720219729915245e-05
3.9957915617608246e-05
4.546935225451981e-05
5.649222552834297e-05
5.649222552834297e-05
6.475938048371032e-05
5.649222552834297e-05
5.649222552834297e-05
7.853797207598924e-05
6.475938048371032e-05
2.3423605706873515e-05
2.6179324025329308e-05
1.2400732433050376e-05
9.64501411459459e-06
1.7912169069961946e-05
1.2400732433050376e-05
-4.133577477684346e-06
-6.889295796140132e-06
-9.64501411459592e-06
-2.066788738841907e-05
-2.066788738841907e-05
-1.7912169069963278e-05
-6.889295796140132e-06
-9.64501411459592e-06
-3.4446478980697995e-05
-6.200366216525588e-05
-7.57822537575348e-05
-5.098078889143272e-05
-3.720219729915378e-05
-3.720219729915378e-05
-3.995791561760957e-05
-5.3736507209888505e-05
-5.098078889143272e-05
-6.475938048371164e-05
-5.6492225528344285e-05
-3.720219729915378e-05
-4.2713633936065354e-05
-5.9247943846800084e-05
-6.200366216525588e-05
-4.2713633936065354e-05
-3.720219729915378e-05
-5.098078889143272e-05
-4.8225070572976926e-05
-3.4446478980697995e-05
-3.169076066224221e-05
-2.066788738841907e-05
-4.133577477684346e-06
4.133577477683014e-06
-9.64501411459592e-06
-2.066788738841907e-05
-3.169076066224221e-05
-4.8225070572976926e-05
-4.2713633936065354e-05
-2.342360570687485e-05
-2.6179324025330647e-05
-3.4446478980697995e-05
-2.6179324025330647e-05
-1.5156450751507488e-05
-2.8935042343786426e-05
-3.4446478980697995e-05
-1.7912169069963278e-05
-6.889295796140132e-06
-6.889295796140132e-06
-1.377859159228559e-06
-6.889295796140132e-06
-4.133577477684346e-06
-1.377859159228559e-06
-1.240073243305171e-05
-1.5156450751507488e-05
-4.133577477684346e-06
1.3778591592272275e-06
-1.7912169069963278e-05
-4.133577477684346e-06
2.066788738841773e-05
9.64501411459459e-06
6.8892957961388014e-06
1.2400732433050376e-05
1.2400732433050376e-05
1.5156450751506162e-05
1.5156450751506162e-05
4.133577477683014e-06
-1.377859159228559e-06
-4.133577477684346e-06
1.2400732433050376e-05
1.5156450751506162e-05
-1.377859159228559e-06
-1.240073243305171e-05
-2.6179324025330647e-05
-1.5156450751507488e-05
1.3778591592272275e-06
-4.133577477684346e-06
-1.5156450751507488e-05
-1.5156450751507488e-05
-1.240073243305171e-05
-2.8935042343786426e-05
-4.2713633936065354e-05
-5.098078889143272e-05
-4.5469352254521147e-05
-3.995791561760957e-05
-3.169076066224221e-05
-1.5156450751507488e-05
-9.64501411459592e-06
2.066788738841773e-05
3.444647898069667e-05
7.30265354390777e-05
0.00016672095826657444
0.0003293083390554659
0.000585590142671854
0.0008336047913328749
0.0008887191577019906
0.0007371546501869223
0.0004588271000228878
0.00016396523994811866
-3.720219729915378e-05
-9.507228198672531e-05
-9.231656366826955e-05
-9.231656366826955e-05
-0.00010058371862363688
-8.404940871290214e-05
-5.6492225528344285e-05
-3.720219729915378e-05
-5.6492225528344285e-05
-7.57822537575348e-05
-7.027081712062322e-05
-4.2713633936065354e-05
-3.720219729915378e-05
-5.098078889143272e-05
-7.027081712062322e-05
-6.200366216525588e-05
-4.2713633936065354e-05
-4.5469352254521147e-05
-2.6179324025330647e-05
-2.8935042343786426e-05
-3.4446478980697995e-05
-2.066788738841907e-05
-9.64501411459592e-06
-2.342360570687485e-05
-4.8225070572976926e-05
-5.098078889143272e-05
-4.8225070572976926e-05
-2.8935042343786426e-05
1.3778591592272275e-06
4.133577477683014e-06
-1.240073243305171e-05
-1.7912169069963278e-05
-6.889295796140132e-06
-9.64501411459592e-06
-1.7912169069963278e-05
-9.64501411459592e-06
-6.889295796140132e-06
-4.133577477684346e-06
-4.133577477684346e-06
-1.7912169069963278e-05
-1.377859159228559e-06
6.8892957961388014e-06
6.8892957961388014e-06
3.444647898069667e-05
4.546935225451981e-05
3.720219729915245e-05
4.271363393606403e-05
5.098078889143139e-05
6.475938048371032e-05
6.751509880216611e-05
5.373650720988717e-05
3.720219729915245e-05
4.546935225451981e-05
3.720219729915245e-05
3.169076066224089e-05
1.7912169069961946e-05
1.7912169069961946e-05
2.6179324025329308e-05
1.2400732433050376e-05
-6.889295796140132e-06
1.3778591592272275e-06
-1.377859159228559e-06
1.3778591592272275e-06
-1.377859159228559e-06
-1.5156450751507488e-05
-2.6179324025330647e-05
-2.6179324025330647e-05
-1.7912169069963278e-05
-2.342360570687485e-05
-3.4446478980697995e-05
-3.720219729915378e-05
-3.4446478980697995e-05
-3.995791561760957e-05
-4.8225070572976926e-05
-4.2713633936065354e-05
-3.169076066224221e-05
-3.720219729915378e-05
-2.342360570687485e-05
-2.6179324025330647e-05
-3.720219729915378e-05
-5.6492225528344285e-05
-4.2713633936065354e-05
-2.066788738841907e-05
-2.8935042343786426e-05
-4.2713633936065354e-05
-3.995791561760957e-05
-4.5469352254521147e-05
-4.5469352254521147e-05
-3.995791561760957e-05
-5.098078889143272e-05
-3.720219729915378e-05
-4.5469352254521147e-05
-3.995791561760957e-05
-3.720219729915378e-05
-4.2713633936065354e-05
-3.169076066224221e-05
-3.720219729915378e-05
-2.6179324025330647e-05
-4.133577477684346e-06
-1.377859159228559e-06
-6.889295796140132e-06
-2.342360570687485e-05
-2.342360570687485e-05
-6.889295796140132e-06
1.3778591592272275e-06
1.2400732433050376e-05
9.64501411459459e-06
-1.377859159228559e-06
-6.889295796140132e-06
1.3778591592272275e-06
-4.133577477684346e-06
-4.133577477684346e-06
-9.64501411459592e-06
-1.5156450751507488e-05
-9.64501411459592e-06
4.133577477683014e-06
1.5156450751506162e-05
6.8892957961388014e-06
9.64501411459459e-06
2.066788738841773e-05
2.3423605706873515e-05
1.5156450751506162e-05
-4.133577477684346e-06
1.2400732433050376e-05
2.3423605706873515e-05
2.6179324025329308e-05
2.3423605706873515e-05
2.3423605706873515e-05
1.5156450751506162e-05
9.64501411459459e-06
2.3423605706873515e-05
2.3423605706873515e-05
-9.64501411459592e-06
-9.64501411459592e-06
1.3778591592272275e-06
-1.377859159228559e-06
-9.64501411459592e-06
-1.240073243305171e-05
-1.5156450751507488e-05
-9.64501411459592e-06
-6.889295796140132e-06
-1.5156450751507488e-05
-2.066788738841907e-05
-1.7912169069963278e-05
-6.889295796140132e-06
-1.240073243305171e-05
-1.7912169069963278e-05
-2.6179324025330647e-05
-1.5156450751507488e-05
1.5156450751506162e-05
4.271363393606403e-05
9.23165636682682e-05
0.00016672095826657444
0.0003348197756923775
0.0006103916075379561
0.0008666734111543443
0.0009658792706187528
0.000855650537880521
0.0006048801709010444
0.0002989954375524522
2.8935042343785094e-05
-8.129369039444639e-05
-0.00010058371862363688
-8.129369039444639e-05
-5.9247943846800084e-05
-5.6492225528344285e-05
-7.027081712062322e-05
-5.9247943846800084e-05
-5.9247943846800084e-05
-5.3736507209888505e-05
-4.2713633936065354e-05
-4.2713633936065354e-05
-4.2713633936065354e-05
-3.720219729915378e-05
-2.8935042343786426e-05
-3.169076066224221e-05
-2.8935042343786426e-05
-2.342360570687485e-05
-2.6179324025330647e-05
-3.169076066224221e-05
-1.240073243305171e-05
-4.133577477684346e-06
-2.342360570687485e-05
-3.720219729915378e-05
-1.377859159228559e-06
2.3423605706873515e-05
1.3778591592272275e-06
-4.2713633936065354e-05
-2.6179324025330647e-05
-2.066788738841907e-05
4.133577477683014e-06
1.7912169069961946e-05
1.2400732433050376e-05
1.2400732433050376e-05
1.5156450751506162e-05
2.066788738841773e-05
6.8892957961388014e-06
4.133577477683014e-06
3.169076066224089e-05
2.066788738841773e-05
2.8935042343785094e-05
3.720219729915245e-05
4.271363393606403e-05
3.9957915617608246e-05
5.098078889143139e-05
7.30265354390777e-05
8.956084534981241e-05
8.956084534981241e-05
0.00010333943694209132
0.00010885087357900291
0.00011436231021591448
0.00012262946517128183
8.956084534981241e-05
7.30265354390777e-05
6.751509880216611e-05
7.578225375753347e-05
7.853797207598924e-05
7.30265354390777e-05
5.9247943846798756e-05
5.098078889143139e-05
5.373650720988717e-05
5.098078889143139e-05
3.169076066224089e-05
5.098078889143139e-05
3.720219729915245e-05
2.6179324025329308e-05
2.8935042343785094e-05
2.3423605706873515e-05
2.3423605706873515e-05
-9.64501411459592e-06
4.133577477683014e-06
2.3423605706873515e-05
4.82250705729756e-05
3.444647898069667e-05
1.5156450751506162e-05
-1.377859159228559e-06
1.2400732433050376e-05
1.2400732433050376e-05
-6.889295796140132e-06
-1.240073243305171e-05
-9.64501411459592e-06
-1.240073243305171e-05
-4.133577477684346e-06
-1.240073243305171e-05
-2.342360570687485e-05
-4.133577477684346e-06
4.133577477683014e-06
1.3778591592272275e-06
4.133577477683014e-06
1.3778591592272275e-06
-1.377859159228559e-06
1.3778591592272275e-06
1.7912169069961946e-05
2.8935042343785094e-05
1.7912169069961946e-05
3.444647898069667e-05
3.444647898069667e-05
3.9957915617608246e-05
4.546935225451981e-05
3.169076066224089e-05
2.6179324025329308e-05
3.9957915617608246e-05
3.169076066224089e-05
2.6179324025329308e-05
9.64501411459459e-06
9.64501411459459e-06
2.066788738841773e-05
2.3423605706873515e-05
3.444647898069667e-05
4.271363393606403e-05
3.720219729915245e-05
3.720219729915245e-05
4.546935225451981e-05
4.546935225451981e-05
5.098078889143139e-05
4.546935225451981e-05
3.169076066224089e-05
4.271363393606403e-05
4.546935225451981e-05
4.82250705729756e-05
4.271363393606403e-05
3.169076066224089e-05
5.098078889143139e-05
6.751509880216611e-05
8.129369039444505e-05
6.200366216525454e-05
2.6179324025329308e-05
2.8935042343785094e-05
4.82250705729756e-05
6.200366216525454e-05
3.9957915617608246e-05
4.271363393606403e-05
5.9247943846798756e-05
6.200366216525454e-05
5.9247943846798756e-05
7.02708171206219e-05
7.30265354390777e-05
6.475938048371032e-05
4.546935225451981e-05
4.82250705729756e-05
3.169076066224089e-05
3.169076066224089e-05
3.169076066224089e-05
3.9957915617608246e-05
3.169076066224089e-05
2.066788738841773e-05
3.444647898069667e-05
5.373650720988717e-05
5.098078889143139e-05
2.8935042343785094e-05
5.098078889143139e-05
4.82250705729756e-05
3.444647898069667e-05
2.8935042343785094e-05
5.649222552834297e-05
8.68051270313566e-05
0.00014191949340047234
0.0002493925078202481
0.0004726056916151668
0.0007729789883268476
0.001037527946898603
0.0011174437781338207
0.0009521006790264736
0.0006462159456778814
0.00029072828259708476
2.6179324025329308e-05
-5.6492225528344285e-05
-5.098078889143272e-05
-3.720219729915378e-05
-4.8225070572976926e-05
-3.4446478980697995e-05
-1.7912169069963278e-05
-9.64501411459592e-06
4.133577477683014e-06
6.8892957961388014e-06
-1.377859159228559e-06
-1.377859159228559e-06
-1.240073243305171e-05
-9.64501411459592e-06
1.2400732433050376e-05
4.133577477683014e-06
-3.169076066224221e-05
-2.8935042343786426e-05
-1.7912169069963278e-05
4.133577477683014e-06
9.64501411459459e-06
-6.889295796140132e-06
-1.377859159228559e-06
1.3778591592272275e-06
9.64501411459459e-06
1.7912169069961946e-05
2.066788738841773e-05
4.271363393606403e-05
2.6179324025329308e-05
1.2400732433050376e-05
2.8935042343785094e-05
2.6179324025329308e-05
1.7912169069961946e-05
1.7912169069961946e-05
3.720219729915245e-05
3.444647898069667e-05
2.6179324025329308e-05
3.720219729915245e-05
4.546935225451981e-05
5.373650720988717e-05
6.751509880216611e-05
5.098078889143139e-05
5.098078889143139e-05
6.200366216525454e-05
8.129369039444505e-05
0.00010333943694209132
0.00011436231021591448
0.00011987374685282605
0.00012262946517128183
0.0001253851834897376
0.00013640805676356078
0.00010609515526054714
0.00010333943694209132
0.00011436231021591448
0.00012262946517128183
0.00011436231021591448
9.23165636682682e-05
8.68051270313566e-05
9.23165636682682e-05
8.68051270313566e-05
9.23165636682682e-05
8.404940871290084e-05
6.475938048371032e-05
3.9957915617608246e-05
5.9247943846798756e-05
5.9247943846798756e-05
4.271363393606403e-05
3.9957915617608246e-05
2.8935042343785094e-05
1.2400732433050376e-05
1.5156450751506162e-05
3.444647898069667e-05
3.9957915617608246e-05
4.546935225451981e-05
5.098078889143139e-05
3.9957915617608246e-05
1.5156450751506162e-05
1.2400732433050376e-05
1.5156450751506162e-05
1.3778591592272275e-06
-4.133577477684346e-06
-1.377859159228559e-06
9.64501411459459e-06
2.066788738841773e-05
1.2400732433050376e-05
1.5156450751506162e-05
3.444647898069667e-05
2.8935042343785094e-05
1.7912169069961946e-05
1.2400732433050376e-05
1.5156450751506162e-05
1.3778591592272275e-06
-9.64501411459592e-06
4.133577477683014e-06
2.8935042343785094e-05
2.3423605706873515e-05
1.5156450751506162e-05
3.444647898069667e-05
3.720219729915245e-05
1.2400732433050376e-05
1.5156450751506162e-05
3.444647898069667e-05
4.82250705729756e-05
5.373650720988717e-05
3.720219729915245e-05
1.5156450751506162e-05
2.066788738841773e-05
1.5156450751506162e-05
-1.377859159228559e-06
1.5156450751506162e-05
3.444647898069667e-05
6.475938048371032e-05
6.751509880216611e-05
5.649222552834297e-05
5.098078889143139e-05
1.2400732433050376e-05
2.066788738841773e-05
2.6179324025329308e-05
1.7912169069961946e-05
3.444647898069667e-05
6.200366216525454e-05
5.649222552834297e-05
3.720219729915245e-05
5.098078889143139e-05
4.82250705729756e-05
3.169076066224089e-05
3.169076066224089e-05
3.444647898069667e-05
5.373650720988717e-05
7.578225375753347e-05
7.853797207598924e-05
5.649222552834297e-05
3.9957915617608246e-05
6.200366216525454e-05
8.129369039444505e-05
8.404940871290084e-05
7.853797207598924e-05
6.200366216525454e-05
5.9247943846798756e-05
8.129369039444505e-05
6.200366216525454e-05
4.546935225451981e-05
3.9957915617608246e-05
3.720219729915245e-05
2.6179324025329308e-05
2.3423605706873515e-05
2.8935042343785094e-05
4.271363393606403e-05
4.546935225451981e-05
3.720219729915245e-05
5.373650720988717e-05
4.546935225451981e-05
3.9957915617608246e-05
2.6179324025329308e-05
1.5156450751506162e-05
2.8935042343785094e-05
5.9247943846798756e-05
8.404940871290084e-05
0.00010885087357900291
0.0001556980849927513
0.000263171099412527
0.0004918957198443572
0.0008253376363775078
0.0010981537499046305
0.0011422452429999228
0.0009879250171663987
0.0006737731288624392
0.000301751155870908
4.82250705729756e-05
-5.9247943846800084e-05
-5.3736507209888505e-05
-2.8935042343786426e-05
-3.720219729915378e-05
-3.169076066224221e-05
-2.066788738841907e-05
-2.066788738841907e-05
-2.342360570687485e-05
-1.240073243305171e-05
-4.133577477684346e-06
-6.889295796140132e-06
-1.377859159228559e-06
2.066788738841773e-05
2.6179324025329308e-05
1.7912169069961946e-05
-1.377859159228559e-06
-4.133577477684346e-06
6.8892957961388014e-06
4.133577477683014e-06
1.3778591592272275e-06
6.8892957961388014e-06
-1.377859159228559e-06
-1.377859159228559e-06
4.133577477683014e-06
1.3778591592272275e-06
1.7912169069961946e-05
2.066788738841773e-05
9.64501411459459e-06
2.066788738841773e-05
3.720219729915245e-05
2.8935042343785094e-05
2.3423605706873515e-05
2.3423605706873515e-05
1.7912169069961946e-05
3.720219729915245e-05
4.82250705729756e-05
4.546935225451981e-05
3.9957915617608246e-05
5.9247943846798756e-05
6.475938048371032e-05
5.9247943846798756e-05
8.404940871290084e-05
7.578225375753347e-05
8.68051270313566e-05
0.00012814090180819342
0.00013089662012664922
0.00010609515526054714
0.00010609515526054714
0.00011987374685282605
0.0001253851834897376
0.00012814090180819342
0.00011987374685282605
0.00012814090180819342
0.0001253851834897376
0.00011436231021591448
0.00010058371862363556
8.404940871290084e-05
7.853797207598924e-05
7.578225375753347e-05
6.475938048371032e-05
5.373650720988717e-05
5.098078889143139e-05
3.720219729915245e-05
4.271363393606403e-05
4.546935225451981e-05
4.82250705729756e-05
3.720219729915245e-05
2.6179324025329308e-05
3.444647898069667e-05
3.720219729915245e-05
1.7912169069961946e-05
4.133577477683014e-06
9.64501411459459e-06
1.7912169069961946e-05
9.64501411459459e-06
1.2400732433050376e-05
1.2400732433050376e-05
9.64501411459459e-06
-1.377859159228559e-06
-1.377859159228559e-06
4.133577477683014e-06
4.133577477683014e-06
9.64501411459459e-06
2.066788738841773e-05
1.5156450751506162e-05
9.64501411459459e-06
1.7912169069961946e-05
4.133577477683014e-06
1.2400732433050376e-05
1.5156450751506162e-05
4.133577477683014e-06
1.3778591592272275e-06
1.3778591592272275e-06
-6.889295796140132e-06
9.64501411459459e-06
9.64501411459459e-06
2.066788738841773e-05
2.066788738841773e-05
6.8892957961388014e-06
1.3778591592272275e-06
6.8892957961388014e-06
1.2400732433050376e-05
9.64501411459459e-06
2.066788738841773e-05
2.8935042343785094e-05
2.3423605706873515e-05
2.3423605706873515e-05
3.444647898069667e-05
4.82250705729756e-05
4.82250705729756e-05
4.82250705729756e-05
2.066788738841773e-05
1.2400732433050376e-05
1.2400732433050376e-05
1.7912169069961946e-05
3.444647898069667e-05
3.9957915617608246e-05
5.098078889143139e-05
5.098078889143139e-05
3.169076066224089e-05
1.7912169069961946e-05
2.3423605706873515e-05
3.444647898069667e-05
4.271363393606403e-05
4.271363393606403e-05
4.546935225451981e-05
4.82250705729756e-05
4.82250705729756e-05
2.8935042343785094e-05
3.169076066224089e-05
4.271363393606403e-05
3.720219729915245e-05
5.373650720988717e-05
5.9247943846798756e-05
5.373650720988717e-05
4.546935225451981e-05
4.82250705729756e-05
4.271363393606403e-05
3.720219729915245e-05
4.271363393606403e-05
4.546935225451981e-05
3.444647898069667e-05
3.169076066224089e-05
2.3423605706873515e-05
1.5156450751506162e-05
3.444647898069667e-05
3.169076066224089e-05
9.64501411459459e-06
9.64501411459459e-06
2.066788738841773e-05
1.2400732433050376e-05
2.3423605706873515e-05
2.6179324025329308e-05
-9.64501411459592e-06
-1.7912169069963278e-05
-2.066788738841907e-05
-9.64501411459592e-06
2.6179324025329308e-05
5.649222552834297e-05
7.853797207598924e-05
0.00011711802853437029
0.000210812451361867
0.00041473560692759526
0.000676528847180895
0.0009300549324788276
0.0009961921721217662
0.0008473833829251538
0.0005552772411688404
0.00023010247959105753
1.5156450751506162e-05
-8.404940871290214e-05
-0.00010333943694209268
-8.129369039444639e-05
-7.302653543907902e-05
-8.680512703135793e-05
-7.85379720759906e-05
-3.995791561760957e-05
-2.066788738841907e-05
-2.066788738841907e-05
-3.169076066224221e-05
-2.6179324025330647e-05
-1.5156450751507488e-05
1.3778591592272275e-06
-9.64501411459592e-06
-1.7912169069963278e-05
-2.8935042343786426e-05
-3.4446478980697995e-05
-2.066788738841907e-05
-1.240073243305171e-05
-4.133577477684346e-06
1.3778591592272275e-06
1.3778591592272275e-06
-6.889295796140132e-06
-1.7912169069963278e-05
-2.342360570687485e-05
-2.066788738841907e-05
-1.240073243305171e-05
-9.64501411459592e-06
1.7912169069961946e-05
4.133577477683014e-06
-4.133577477684346e-06
-1.240073243305171e-05
-6.889295796140132e-06
6.8892957961388014e-06
9.64501411459459e-06
2.066788738841773e-05
2.8935042343785094e-05
2.8935042343785094e-05
3.720219729915245e-05
3.720219729915245e-05
4.82250705729756e-05
5.649222552834297e-05
6.200366216525454e-05
6.751509880216611e-05
7.578225375753347e-05
8.404940871290084e-05
7.02708171206219e-05
7.02708171206219e-05
6.475938048371032e-05
7.578225375753347e-05
7.02708171206219e-05
7.02708171206219e-05
9.507228198672396e-05
8.956084534981241e-05
8.956084534981241e-05
9.23165636682682e-05
7.578225375753347e-05
5.649222552834297e-05
5.9247943846798756e-05
5.373650720988717e-05
3.9957915617608246e-05
3.444647898069667e-05
3.169076066224089e-05
3.720219729915245e-05
3.9957915617608246e-05
3.169076066224089e-05
-1.377859159228559e-06
-9.64501411459592e-06
-6.889295796140132e-06
4.133577477683014e-06
-6.889295796140132e-06
-2.066788738841907e-05
-6.889295796140132e-06
-1.377859159228559e-06
-4.133577477684346e-06
-9.64501411459592e-06
-2.066788738841907e-05
-1.7912169069963278e-05
1.2400732433050376e-05
-1.5156450751507488e-05
-1.240073243305171e-05
-1.7912169069963278e-05
-2.6179324025330647e-05
-9.64501411459592e-06
-4.133577477684346e-06
-1.240073243305171e-05
-1.5156450751507488e-05
-1.240073243305171e-05
1.3778591592272275e-06
-9.64501411459592e-06
-1.5156450751507488e-05
-2.066788738841907e-05
-2.6179324025330647e-05
-2.342360570687485e-05
-6.889295796140132e-06
-4.133577477684346e-06
-9.64501411459592e-06
9.64501411459459e-06
4.546935225451981e-05
5.373650720988717e-05
9.64501411459459e-06
-1.5156450751507488e-05
-1.377859159228559e-06
2.3423605706873515e-05
2.066788738841773e-05
1.2400732433050376e-05
2.3423605706873515e-05
9.64501411459459e-06
9.64501411459459e-06
1.2400732433050376e-05
1.7912169069961946e-05
1.5156450751506162e-05
1.2400732433050376e-05
3.169076066224089e-05
3.169076066224089e-05
3.444647898069667e-05
4.546935225451981e-05
4.546935225451981e-05
3.720219729915245e-05
9.64501411459459e-06
4.133577477683014e-06
2.066788738841773e-05
1.7912169069961946e-05
2.066788738841773e-05
3.169076066224089e-05
2.6179324025329308e-05
1.7912169069961946e-05
9.64501411459459e-06
-4.133577477684346e-06
1.7912169069961946e-05
4.271363393606403e-05
3.444647898069667e-05
1.2400732433050376e-05
2.066788738841773e-05
3.444647898069667e-05
2.8935042343785094e-05
2.066788738841773e-05
2.3423605706873515e-05
1.2400732433050376e-05
-1.5156450751507488e-05
-4.133577477684346e-06
9.64501411459459e-06
1.7912169069961946e-05
1.3778591592272275e-06
-2.8935042343786426e-05
-2.8935042343786426e-05
-3.4446478980697995e-05
-2.8935042343786426e-05
-9.64501411459592e-06
-9.64501411459592e-06
-1.5156450751507488e-05
-2.066788738841907e-05
-2.6179324025330647e-05
-1.240073243305171e-05
-1.240073243305171e-05
1.3778591592272275e-06
3.720219729915245e-05
3.9957915617608246e-05
7.578225375753347e-05
0.0001556980849927513
0.00032104118410009855
0.0005773229877164866
0.0008115590447852286
0.0008914748760204465
0.0007481775234607456
0.000210812451361867
-4.133577477684346e-06
-0.00010333943694209268
-0.00011160659189746003
-0.00010333943694209268
-0.00011160659189746003
-0.00010333943694209268
-9.507228198672531e-05
-8.129369039444639e-05
-6.475938048371164e-05
-5.9247943846800084e-05
-5.3736507209888505e-05
-5.9247943846800084e-05
-6.200366216525588e-05
-5.098078889143272e-05
-3.169076066224221e-05
-2.342360570687485e-05
-3.995791561760957e-05
-3.720219729915378e-05
-2.8935042343786426e-05
-2.066788738841907e-05
-2.8935042343786426e-05
-4.2713633936065354e-05
-3.4446478980697995e-05
-5.6492225528344285e-05
-3.995791561760957e-05
-3.995791561760957e-05
-4.5469352254521147e-05
-3.169076066224221e-05
-2.342360570687485e-05
-2.342360570687485e-05
-1.7912169069963278e-05
-1.377859159228559e-06
1.3778591592272275e-06
-6.889295796140132e-06
-2.066788738841907e-05
-3.169076066224221e-05
-2.8935042343786426e-05
-2.066788738841907e-05
-1.5156450751507488e-05
-9.64501411459592e-06
1.3778591592272275e-06
2.066788738841773e-05
2.6179324025329308e-05
1.5156450751506162e-05
1.7912169069961946e-05
4.546935225451981e-05
5.373650720988717e-05
5.098078889143139e-05
4.82250705729756e-05
6.200366216525454e-05
7.30265354390777e-05
6.751509880216611e-05
6.475938048371032e-05
7.02708171206219e-05
5.9247943846798756e-05
6.751509880216611e-05
6.475938048371032e-05
5.9247943846798756e-05
6.751509880216611e-05
4.546935225451981e-05
2.066788738841773e-05
1.2400732433050376e-05
1.7912169069961946e-05
1.7912169069961946e-05
-6.889295796140132e-06
-2.342360570687485e-05
-2.342360570687485e-05
-1.240073243305171e-05
-4.133577477684346e-06
-9.64501411459592e-06
-9.64501411459592e-06
-1.240073243305171e-05
-2.342360570687485e-05
-5.3736507209888505e-05
-4.8225070572976926e-05
-3.169076066224221e-05
-2.066788738841907e-05
-9.64501411459592e-06
-2.066788738841907e-05
-2.066788738841907e-05
-3.4446478980697995e-05
-3.169076066224221e-05
-1.240073243305171e-05
-1.7912169069963278e-05
-2.6179324025330647e-05
-3.720219729915378e-05
-3.720219729915378e-05
-4.2713633936065354e-05
-3.720219729915378e-05
-2.066788738841907e-05
-4.133577477684346e-06
-4.133577477684346e-06
4.133577477683014e-06
-9.64501411459592e-06
-3.4446478980697995e-05
-4.5469352254521147e-05
-3.995791561760957e-05
-2.6179324025330647e-05
-1.7912169069963278e-05
-6.889295796140132e-06
-1.5156450751507488e-05
-2.342360570687485e-05
-2.066788738841907e-05
1.3778591592272275e-06
-6.889295796140132e-06
-2.342360570687485e-05
-1.5156450751507488e-05
6.8892957961388014e-06
4.133577477683014e-06
-1.377859159228559e-06
1.3778591592272275e-06
1.7912169069961946e-05
3.9957915617608246e-05
3.169076066224089e-05
4.133577477683014e-06
-1.377859159228559e-06
-6.889295796140132e-06
-9.64501411459592e-06
1.3778591592272275e-06
-1.377859159228559e-06
-1.240073243305171e-05
1.3778591592272275e-06
1.5156450751506162e-05
1.5156450751506162e-05
1.7912169069961946e-05
1.7912169069961946e-05
1.3778591592272275e-06
2.3423605706873515e-05
2.8935042343785094e-05
2.8935042343785094e-05
5.373650720988717e-05
6.200366216525454e-05
3.169076066224089e-05
3.169076066224089e-05
3.9957915617608246e-05
2.3423605706873515e-05
1.2400732433050376e-05
9.64501411459459e-06
6.8892957961388014e-06
6.8892957961388014e-06
-6.889295796140132e-06
-1.5156450751507488e-05
-1.240073243305171e-05
-9.64501411459592e-06
-6.889295796140132e-06
-1.5156450751507488e-05
-1.7912169069963278e-05
-1.240073243305171e-05
-6.889295796140132e-06
-4.133577477684346e-06
-6.889295796140132e-06
-2.342360570687485e-05
-9.64501411459592e-06
9.64501411459459e-06
2.6179324025329308e-05
4.82250705729756e-05
8.956084534981241e-05
0.00016672095826657444
0.00032104118410009855
0.000585590142671854
0.0008721848477912556
0.0010347722285801472
0.000960367833981841
0.000717864621957732
0.00038717842374303736
8.68051270313566e-05
-5.6492225528344285e-05
-8.956084534981374e-05
-7.302653543907902e-05
-8.129369039444639e-05
-0.00010058371862363688
-9.231656366826955e-05
-7.027081712062322e-05
-4.8225070572976926e-05
-5.098078889143272e-05
-6.475938048371164e-05
-3.995791561760957e-05
-3.995791561760957e-05
-4.5469352254521147e-05
-3.720219729915378e-05
-3.995791561760957e-05
-3.720219729915378e-05
-3.4446478980697995e-05
-3.169076066224221e-05
-3.4446478980697995e-05
-1.7912169069963278e-05
-2.066788738841907e-05
-3.169076066224221e-05
-2.8935042343786426e-05
-2.342360570687485e-05
1.2400732433050376e-05
1.2400732433050376e-05
-1.377859159228559e-06
-4.5469352254521147e-05
-3.720219729915378e-05
-2.066788738841907e-05
-2.342360570687485e-05
-1.7912169069963278e-05
-4.133577477684346e-06
9.64501411459459e-06
6.8892957961388014e-06
1.3778591592272275e-06
4.133577477683014e-06
1.7912169069961946e-05
3.444647898069667e-05
2.6179324025329308e-05
2.066788738841773e-05
2.8935042343785094e-05
3.444647898069667e-05
5.373650720988717e-05
6.475938048371032e-05
5.373650720988717e-05
6.751509880216611e-05
8.129369039444505e-05
8.956084534981241e-05
7.853797207598924e-05
8.956084534981241e-05
8.68051270313566e-05
7.853797207598924e-05
7.853797207598924e-05
6.751509880216611e-05
5.9247943846798756e-05
5.649222552834297e-05
5.649222552834297e-05
5.649222552834297e-05
5.098078889143139e-05
4.271363393606403e-05
3.169076066224089e-05
2.6179324025329308e-05
4.546935225451981e-05
4.271363393606403e-05
2.066788738841773e-05
1.2400732433050376e-05
-1.377859159228559e-06
9.64501411459459e-06
6.8892957961388014e-06
-4.133577477684346e-06
-2.342360570687485e-05
-2.8935042343786426e-05
-1.7912169069963278e-05
-4.133577477684346e-06
-4.133577477684346e-06
-6.889295796140132e-06
4.133577477683014e-06
2.066788738841773e-05
-4.133577477684346e-06
-9.64501411459592e-06
-1.377859159228559e-06
-6.889295796140132e-06
-1.7912169069963278e-05
-3.4446478980697995e-05
-2.8935042343786426e-05
-3.169076066224221e-05
-3.4446478980697995e-05
-2.6179324025330647e-05
-1.7912169069963278e-05
-2.342360570687485e-05
-3.4446478980697995e-05
-3.4446478980697995e-05
-2.6179324025330647e-05
4.133577477683014e-06
6.8892957961388014e-06
-2.066788738841907e-05
-2.6179324025330647e-05
-2.8935042343786426e-05
1.5156450751506162e-05
2.3423605706873515e-05
4.133577477683014e-06
1.2400732433050376e-05
-1.377859159228559e-06
1.3778591592272275e-06
1.5156450751506162e-05
4.133577477683014e-06
-6.889295796140132e-06
-9.64501411459592e-06
-1.377859159228559e-06
-9.64501411459592e-06
-3.4446478980697995e-05
-9.64501411459592e-06
-9.64501411459592e-06
-4.133577477684346e-06
2.066788738841773e-05
4.133577477683014e-06
-4.133577477684346e-06
-6.889295796140132e-06
-9.64501411459592e-06
-1.377859159228559e-06
9.64501411459459e-06
1.2400732433050376e-05
2.066788738841773e-05
2.3423605706873515e-05
1.5156450751506162e-05
1.2400732433050376e-05
9.64501411459459e-06
-1.377859159228559e-06
1.5156450751506162e-05
2.8935042343785094e-05
2.8935042343785094e-05
2.8935042343785094e-05
3.720219729915245e-05
2.066788738841773e-05
2.6179324025329308e-05
2.6179324025329308e-05
9.64501411459459e-06
2.066788738841773e-05
2.066788738841773e-05
6.8892957961388014e-06
-1.377859159228559e-06
-1.377859159228559e-06
-9.64501411459592e-06
-4.133577477684346e-06
-9.64501411459592e-06
-2.066788738841907e-05
-1.5156450751507488e-05
-1.240073243305171e-05
-9.64501411459592e-06
-6.889295796140132e-06
-4.133577477684346e-06
6.8892957961388014e-06
-4.133577477684346e-06
-1.240073243305171e-05
1.5156450751506162e-05
9.64501411459459e-06
4.82250705729756e-05
0.00013640805676356078
0.00033206405737392166
0.0006186587624933234
0.00092178777752346
0.0011009094682230861
0.0010457951018539703
0.0007977804531929496
0.0004367813534752416
9.507228198672396e-05
-6.751509880216745e-05
-0.0001198737468528274
-0.00010333943694209268
-9.78280003051811e-05
-8.129369039444639e-05
-5.098078889143272e-05
-5.6492225528344285e-05
-6.475938048371164e-05
-6.751509880216745e-05
-6.475938048371164e-05
-7.027081712062322e-05
-7.85379720759906e-05
-5.6492225528344285e-05
-3.995791561760957e-05
-5.3736507209888505e-05
-4.8225070572976926e-05
-3.720219729915378e-05
-4.5469352254521147e-05
-3.4446478980697995e-05
-3.169076066224221e-05
-4.2713633936065354e-05
-5.098078889143272e-05
-4.8225070572976926e-05
-3.4446478980697995e-05
-1.7912169069963278e-05
-3.4446478980697995e-05
-3.4446478980697995e-05
-3.4446478980697995e-05
-4.5469352254521147e-05
-3.720219729915378e-05
-1.240073243305171e-05
-1.5156450751507488e-05
-2.342360570687485e-05
-2.342360570687485e-05
-2.342360570687485e-05
-1.5156450751507488e-05
-1.240073243305171e-05
-9.64501411459592e-06
-2.066788738841907e-05
-3.4446478980697995e-05
-9.64501411459592e-06
1.5156450751506162e-05
3.720219729915245e-05
7.02708171206219e-05
5.9247943846798756e-05
4.546935225451981e-05
4.546935225451981e-05
5.9247943846798756e-05
7.853797207598924e-05
8.956084534981241e-05
8.68051270313566e-05
7.853797207598924e-05
8.956084534981241e-05
8.956084534981241e-05
6.751509880216611e-05
6.751509880216611e-05
5.649222552834297e-05
6.200366216525454e-05
6.475938048371032e-05
5.649222552834297e-05
5.098078889143139e-05
2.3423605706873515e-05
9.64501411459459e-06
-4.133577477684346e-06
-2.066788738841907e-05
-2.342360570687485e-05
-6.889295796140132e-06
-9.64501411459592e-06
-1.240073243305171e-05
-1.5156450751507488e-05
-1.5156450751507488e-05
-9.64501411459592e-06
-4.133577477684346e-06
-1.240073243305171e-05
-3.169076066224221e-05
-2.6179324025330647e-05
-2.066788738841907e-05
-1.7912169069963278e-05
-6.889295796140132e-06
1.3778591592272275e-06
-1.377859159228559e-06
-1.5156450751507488e-05
-1.377859159228559e-06
-1.5156450751507488e-05
-2.342360570687485e-05
-3.169076066224221e-05
-2.8935042343786426e-05
-9.64501411459592e-06
-1.7912169069963278e-05
-3.169076066224221e-05
-4.5469352254521147e-05
-3.4446478980697995e-05
-2.066788738841907e-05
4.133577477683014e-06
1.7912169069961946e-05
1.3778591592272275e-06
-3.720219729915378e-05
-5.098078889143272e-05
-2.6179324025330647e-05
-2.066788738841907e-05
-3.995791561760957e-05
-2.342360570687485e-05
-1.5156450751507488e-05
-3.4446478980697995e-05
-3.4446478980697995e-05
-1.7912169069963278e-05
-4.133577477684346e-06
4.133577477683014e-06
-6.889295796140132e-06
-4.133577477684346e-06
1.3778591592272275e-06
4.133577477683014e-06
2.3423605706873515e-05
3.169076066224089e-05
1.2400732433050376e-05
4.133577477683014e-06
1.5156450751506162e-05
3.169076066224089e-05
2.3423605706873515e-05
9.64501411459459e-06
3.9957915617608246e-05
3.720219729915245e-05
2.066788738841773e-05
2.8935042343785094e-05
3.169076066224089e-05
3.444647898069667e-05
2.3423605706873515e-05
2.3423605706873515e-05
5.373650720988717e-05
7.853797207598924e-05
7.30265354390777e-05
5.9247943846798756e-05
4.546935225451981e-05
5.098078889143139e-05
3.9957915617608246e-05
3.9957915617608246e-05
5.098078889143139e-05
5.649222552834297e-05
5.098078889143139e-05
3.169076066224089e-05
4.546935225451981e-05
3.444647898069667e-05
2.066788738841773e-05
3.444647898069667e-05
2.8935042343785094e-05
2.066788738841773e-05
1.7912169069961946e-05
2.3423605706873515e-05
6.8892957961388014e-06
1.3778591592272275e-06
1.3778591592272275e-06
-4.133577477684346e-06
-6.889295796140132e-06
4.133577477683014e-06
-6.889295796140132e-06
-2.066788738841907e-05
6.8892957961388014e-06
6.200366216525454e-05
0.00010058371862363556
0.00019427814145113231
0.00037891126878767
0.0006737731288624392
0.0009906807354848547
0.0011229552147707324
0.0010430393835355147
0.0007812461432822147
0.0004092241702906837
6.751509880216611e-05
-8.404940871290214e-05
-0.00010058371862363688
-9.231656366826955e-05
-8.956084534981374e-05
-8.404940871290214e-05
-6.200366216525588e-05
-4.5469352254521147e-05
-7.027081712062322e-05
-7.85379720759906e-05
-7.57822537575348e-05
-5.9247943846800084e-05
-4.2713633936065354e-05
-6.200366216525588e-05
-5.9247943846800084e-05
-4.5469352254521147e-05
-4.8225070572976926e-05
-5.9247943846800084e-05
-7.302653543907902e-05
-5.098078889143272e-05
-4.5469352254521147e-05
-5.6492225528344285e-05
-6.475938048371164e-05
-5.9247943846800084e-05
-5.6492225528344285e-05
-3.720219729915378e-05
-1.5156450751507488e-05
-2.6179324025330647e-05
-3.995791561760957e-05
-4.5469352254521147e-05
-5.3736507209888505e-05
-3.720219729915378e-05
-3.4446478980697995e-05
-4.5469352254521147e-05
-3.4446478980697995e-05
-2.6179324025330647e-05
-3.995791561760957e-05
-3.720219729915378e-05
-2.6179324025330647e-05
-1.240073243305171e-05
1.3778591592272275e-06
9.64501411459459e-06
3.169076066224089e-05
2.8935042343785094e-05
2.8935042343785094e-05
3.444647898069667e-05
2.8935042343785094e-05
5.098078889143139e-05
6.751509880216611e-05
6.475938048371032e-05
7.02708171206219e-05
8.129369039444505e-05
8.129369039444505e-05
5.098078889143139e-05
3.720219729915245e-05
3.720219729915245e-05
3.9957915617608246e-05
3.9957915617608246e-05
2.6179324025329308e-05
1.5156450751506162e-05
4.133577477683014e-06
-4.133577477684346e-06
9.64501411459459e-06
1.3778591592272275e-06
-1.7912169069963278e-05
-3.4446478980697995e-05
-4.2713633936065354e-05
-3.169076066224221e-05
-3.4446478980697995e-05
-3.720219729915378e-05
-2.342360570687485e-05
-1.240073243305171e-05
-1.7912169069963278e-05
-4.5469352254521147e-05
-5.6492225528344285e-05
-4.8225070572976926e-05
-5.098078889143272e-05
-6.200366216525588e-05
-6.751509880216745e-05
-7.302653543907902e-05
-5.9247943846800084e-05
-5.3736507209888505e-05
-4.8225070572976926e-05
-5.3736507209888505e-05
-6.200366216525588e-05
-4.5469352254521147e-05
-3.169076066224221e-05
-5.098078889143272e-05
-3.720219729915378e-05
-3.995791561760957e-05
-4.5469352254521147e-05
-4.8225070572976926e-05
-4.8225070572976926e-05
-4.8225070572976926e-05
-6.751509880216745e-05
-7.57822537575348e-05
-6.751509880216745e-05
-5.098078889143272e-05
-5.9247943846800084e-05
-5.9247943846800084e-05
-5.098078889143272e-05
-4.8225070572976926e-05
-5.3736507209888505e-05
-4.2713633936065354e-05
-3.169076066224221e-05
-4.2713633936065354e-05
-3.995791561760957e-05
-3.995791561760957e-05
-2.8935042343786426e-05
-1.240073243305171e-05
-2.8935042343786426e-05
-3.720219729915378e-05
-2.6179324025330647e-05
-1.240073243305171e-05
-2.8935042343786426e-05
-3.995791561760957e-05
-4.8225070572976926e-05
-2.8935042343786426e-05
-1.240073243305171e-05
-2.066788738841907e-05
-2.342360570687485e-05
-3.4446478980697995e-05
-3.4446478980697995e-05
-1.5156450751507488e-05
-1.240073243305171e-05
-9.64501411459592e-06
1.3778591592272275e-06
-9.64501411459592e-06
-6.889295796140132e-06
1.2400732433050376e-05
1.5156450751506162e-05
-9.64501411459592e-06
-9.64501411459592e-06
-6.889295796140132e-06
6.8892957961388014e-06
6.8892957961388014e-06
4.133577477683014e-06
-1.7912169069963278e-05
-2.8935042343786426e-05
-2.6179324025330647e-05
-3.169076066224221e-05
-3.720219729915378e-05
-3.4446478980697995e-05
-3.995791561760957e-05
-4.2713633936065354e-05
-5.098078889143272e-05
-4.5469352254521147e-05
-4.2713633936065354e-05
-3.169076066224221e-05
-1.7912169069963278e-05
-2.066788738841907e-05
-3.4446478980697995e-05
-4.2713633936065354e-05
-4.133577477684346e-06
1.5156450751506162e-05
2.3423605706873515e-05
6.200366216525454e-05
0.0001832552681773092
0.00043126991683832994
0.0007371546501869223
0.0009272992141603715
0.0009190320592050041
0.0007288874952315547
0.0004092241702906837
0.00010609515526054714
-5.9247943846800084e-05
-0.00011436231021591582
-0.0001364080567635621
-0.00012814090180819475
-0.00010058371862363688
-9.78280003051811e-05
-9.231656366826955e-05
-8.956084534981374e-05
-8.404940871290214e-05
-7.57822537575348e-05
-7.85379720759906e-05
-7.85379720759906e-05
-7.302653543907902e-05
-7.027081712062322e-05
-6.475938048371164e-05
-6.475938048371164e-05
-5.6492225528344285e-05
-5.3736507209888505e-05
-6.475938048371164e-05
-6.200366216525588e-05
-5.6492225528344285e-05
-5.098078889143272e-05
-4.2713633936065354e-05
-3.169076066224221e-05
-3.4446478980697995e-05
-4.5469352254521147e-05
-7.57822537575348e-05
-5.9247943846800084e-05
-6.200366216525588e-05
-6.200366216525588e-05
-4.8225070572976926e-05
-3.4446478980697995e-05
-3.720219729915378e-05
-3.4446478980697995e-05
-3.169076066224221e-05
-1.5156450751507488e-05
-1.7912169069963278e-05
-2.066788738841907e-05
-9.64501411459592e-06
4.133577477683014e-06
1.5156450751506162e-05
2.066788738841773e-05
9.64501411459459e-06
-4.133577477684346e-06
1.5156450751506162e-05
3.720219729915245e-05
5.098078889143139e-05
5.9247943846798756e-05
6.475938048371032e-05
5.098078889143139e-05
4.546935225451981e-05
4.546935225451981e-05
5.098078889143139e-05
3.720219729915245e-05
3.9957915617608246e-05
4.271363393606403e-05
2.8935042343785094e-05
1.2400732433050376e-05
2.6179324025329308e-05
2.8935042343785094e-05
2.3423605706873515e-05
6.8892957961388014e-06
-9.64501411459592e-06
-3.169076066224221e-05
-4.2713633936065354e-05
-4.8225070572976926e-05
-3.995791561760957e-05
-2.8935042343786426e-05
-4.2713633936065354e-05
-3.995791561760957e-05
-2.8935042343786426e-05
-3.720219729915378e-05
-3.169076066224221e-05
-3.995791561760957e-05
-4.2713633936065354e-05
-3.4446478980697995e-05
-4.2713633936065354e-05
-6.200366216525588e-05
-5.3736507209888505e-05
-4.8225070572976926e-05
-3.169076066224221e-05
-2.8935042343786426e-05
-4.5469352254521147e-05
-5.098078889143272e-05
-3.720219729915378e-05
-3.169076066224221e-05
-3.995791561760957e-05
-4.2713633936065354e-05
-3.995791561760957e-05
-3.169076066224221e-05
-4.2713633936065354e-05
-2.6179324025330647e-05
-1.377859159228559e-06
9.64501411459459e-06
2.6179324025329308e-05
1.5156450751506162e-05
1.3778591592272275e-06
-4.133577477684346e-06
-1.5156450751507488e-05
-1.377859159228559e-06
-1.240073243305171e-05
-2.066788738841907e-05
-1.7912169069963278e-05
-4.133577477684346e-06
-4.133577477684346e-06
1.3778591592272275e-06
2.066788738841773e-05
1.7912169069961946e-05
1.7912169069961946e-05
2.066788738841773e-05
-1.240073243305171e-05
-4.133577477684346e-06
2.066788738841773e-05
2.066788738841773e-05
6.8892957961388014e-06
-1.377859159228559e-06
9.64501411459459e-06
6.8892957961388014e-06
4.133577477683014e-06
3.169076066224089e-05
3.9957915617608246e-05
9.64501411459459e-06
1.7912169069961946e-05
3.720219729915245e-05
3.444647898069667e-05
3.169076066224089e-05
5.649222552834297e-05
5.373650720988717e-05
3.720219729915245e-05
2.3423605706873515e-05
2.066788738841773e-05
3.720219729915245e-05
4.271363393606403e-05
3.444647898069667e-05
2.3423605706873515e-05
2.8935042343785094e-05
3.169076066224089e-05
2.6179324025329308e-05
-1.377859159228559e-06
-1.5156450751507488e-05
-4.133577477684346e-06
-1.377859159228559e-06
1.7912169069961946e-05
1.5156450751506162e-05
-6.889295796140132e-06
-1.7912169069963278e-05
-2.342360570687485e-05
-1.7912169069963278e-05
6.8892957961388014e-06
1.5156450751506162e-05
1.7912169069961946e-05
2.066788738841773e-05
9.64501411459459e-06
2.3423605706873515e-05
4.546935225451981e-05
4.546935225451981e-05
8.956084534981241e-05
0.00019152242313267648
0.00037891126878767
0.000637948790722514
0.0008611619745174325
0.0009135206225680924
0.0007619561150530243
0.0004918957198443572
0.00019978957808804387
-9.64501411459592e-06
-9.78280003051811e-05
-0.00010609515526054846
-9.507228198672531e-05
-7.57822537575348e-05
-5.6492225528344285e-05
-2.8935042343786426e-05
-3.169076066224221e-05
-2.8935042343786426e-05
-3.169076066224221e-05
-4.5469352254521147e-05
-4.8225070572976926e-05
-4.5469352254521147e-05
-2.6179324025330647e-05
-3.995791561760957e-05
-4.5469352254521147e-05
-3.4446478980697995e-05
-2.342360570687485e-05
-2.342360570687485e-05
-1.240073243305171e-05
-6.889295796140132e-06
-2.342360570687485e-05
-2.066788738841907e-05
-1.240073243305171e-05
-3.4446478980697995e-05
4.133577477683014e-06
9.64501411459459e-06
-6.889295796140132e-06
-2.342360570687485e-05
-1.7912169069963278e-05
-1.240073243305171e-05
-9.64501411459592e-06
-1.7912169069963278e-05
-3.4446478980697995e-05
-3.169076066224221e-05
-2.342360570687485e-05
-2.6179324025330647e-05
-2.066788738841907e-05
1.3778591592272275e-06
9.64501411459459e-06
-1.377859159228559e-06
9.64501411459459e-06
2.8935042343785094e-05
2.066788738841773e-05
9.64501411459459e-06
1.2400732433050376e-05
3.720219729915245e-05
4.82250705729756e-05
4.546935225451981e-05
6.751509880216611e-05
5.9247943846798756e-05
4.271363393606403e-05
3.9957915617608246e-05
2.8935042343785094e-05
3.9957915617608246e-05
3.444647898069667e-05
2.3423605706873515e-05
2.3423605706873515e-05
1.2400732433050376e-05
1.3778591592272275e-06
-1.5156450751507488e-05
-2.066788738841907e-05
-2.342360570687485e-05
-2.342360570687485e-05
-1.5156450751507488e-05
-2.6179324025330647e-05
-3.995791561760957e-05
-5.3736507209888505e-05
-5.6492225528344285e-05
-4.2713633936065354e-05
-4.5469352254521147e-05
-5.098078889143272e-05
-6.200366216525588e-05
-5.3736507209888505e-05
-5.9247943846800084e-05
-6.200366216525588e-05
-5.098078889143272e-05
-5.098078889143272e-05
-4.2713633936065354e-05
-4.2713633936065354e-05
-6.200366216525588e-05
-7.302653543907902e-05
-6.475938048371164e-05
-6.200366216525588e-05
-6.751509880216745e-05
-6.475938048371164e-05
-5.6492225528344285e-05
-5.098078889143272e-05
-5.098078889143272e-05
-5.6492225528344285e-05
-6.475938048371164e-05
-7.027081712062322e-05
-5.6492225528344285e-05
-5.6492225528344285e-05
-6.475938048371164e-05
-5.6492225528344285e-05
-3.720219729915378e-05
-2.6179324025330647e-05
-2.342360570687485e-05
-1.7912169069963278e-05
-2.066788738841907e-05
-3.4446478980697995e-05
-4.2713633936065354e-05
-1.7912169069963278e-05
-1.7912169069963278e-05
-1.5156450751507488e-05
-2.8935042343786426e-05
-4.2713633936065354e-05
-3.169076066224221e-05
-4.5469352254521147e-05
-5.098078889143272e-05
-3.4446478980697995e-05
-1.5156450751507488e-05
-1.5156450751507488e-05
-3.4446478980697995e-05
-2.8935042343786426e-05
-2.342360570687485e-05
-3.169076066224221e-05
-2.342360570687485e-05
-1.7912169069963278e-05
9.64501411459459e-06
2.3423605706873515e-05
1.3778591592272275e-06
-9.64501411459592e-06
-1.240073243305171e-05
-1.7912169069963278e-05
-1.5156450751507488e-05
-6.889295796140132e-06
-9.64501411459592e-06
-2.066788738841907e-05
-2.066788738841907e-05
-1.7912169069963278e-05
4.133577477683014e-06
4.133577477683014e-06
-1.7912169069963278e-05
-9.64501411459592e-06
-6.889295796140132e-06
-1.377859159228559e-06
1.2400732433050376e-05
-4.133577477684346e-06
-1.7912169069963278e-05
-4.5469352254521147e-05
-3.995791561760957e-05
-3.720219729915378e-05
-5.098078889143272e-05
-5.098078889143272e-05
-5.098078889143272e-05
-3.4446478980697995e-05
-4.5469352254521147e-05
-5.9247943846800084e-05
-6.475938048371164e-05
-4.2713633936065354e-05
-2.6179324025330647e-05
-9.64501411459592e-06
-6.889295796140132e-06
1.7912169069961946e-05
5.649222552834297e-05
0.00013089662012664922
0.00030450687418936376
0.0005690558327611192
0.0008336047913328749
0.0009906807354848547
0.0009465892423895617
0.0007123531853208202
0.00035135408560311223
4.271363393606403e-05
-9.507228198672531e-05
-0.00012814090180819475
-0.00012814090180819475
-0.0001198737468528274
-0.00011436231021591582
-9.507228198672531e-05
-8.404940871290214e-05
-7.302653543907902e-05
-6.751509880216745e-05
-8.680512703135793e-05
-8.404940871290214e-05
-7.57822537575348e-05
-7.302653543907902e-05
-9.231656366826955e-05
-9.78280003051811e-05
-7.027081712062322e-05
-6.475938048371164e-05
-8.680512703135793e-05
-9.231656366826955e-05
-8.404940871290214e-05
-7.57822537575348e-05
-7.027081712062322e-05
-6.200366216525588e-05
-5.6492225528344285e-05
-5.3736507209888505e-05
-7.027081712062322e-05
-7.302653543907902e-05
-6.200366216525588e-05
-5.6492225528344285e-05
-4.8225070572976926e-05
-3.4446478980697995e-05
-2.066788738841907e-05
-2.8935042343786426e-05
-4.2713633936065354e-05
-5.098078889143272e-05
-5.3736507209888505e-05
-3.720219729915378e-05
-1.240073243305171e-05
-9.64501411459592e-06
-1.240073243305171e-05
-1.377859159228559e-06
-6.889295796140132e-06
6.8892957961388014e-06
1.5156450751506162e-05
3.444647898069667e-05
3.444647898069667e-05
4.82250705729756e-05
5.649222552834297e-05
5.098078889143139e-05
5.098078889143139e-05
4.271363393606403e-05
4.82250705729756e-05
5.373650720988717e-05
3.444647898069667e-05
2.3423605706873515e-05
3.444647898069667e-05
2.6179324025329308e-05
2.6179324025329308e-05
2.3423605706873515e-05
1.2400732433050376e-05
1.7912169069961946e-05
1.2400732433050376e-05
-1.377859159228559e-06
-1.5156450751507488e-05
-2.8935042343786426e-05
-2.8935042343786426e-05
-2.6179324025330647e-05
-4.2713633936065354e-05
-5.098078889143272e-05
-4.5469352254521147e-05
-3.995791561760957e-05
-4.2713633936065354e-05
-4.2713633936065354e-05
-4.5469352254521147e-05
-4.8225070572976926e-05
-6.475938048371164e-05
-5.098078889143272e-05
-3.4446478980697995e-05
-2.342360570687485e-05
-2.342360570687485e-05
-5.3736507209888505e-05
-5.098078889143272e-05
-4.8225070572976926e-05
-5.098078889143272e-05
-4.5469352254521147e-05
-4.2713633936065354e-05
-3.995791561760957e-05
-2.8935042343786426e-05
-4.5469352254521147e-05
-6.200366216525588e-05
-5.9247943846800084e-05
-4.2713633936065354e-05
-4.8225070572976926e-05
-5.098078889143272e-05
-5.9247943846800084e-05
-4.8225070572976926e-05
-4.8225070572976926e-05
-4.8225070572976926e-05
-4.2713633936065354e-05
-3.169076066224221e-05
-4.2713633936065354e-05
-4.5469352254521147e-05
-1.240073243305171e-05
6.8892957961388014e-06
-9.64501411459592e-06
-3.169076066224221e-05
-2.342360570687485e-05
-2.342360570687485e-05
-1.7912169069963278e-05
-2.066788738841907e-05
-1.240073243305171e-05
-1.240073243305171e-05
-1.5156450751507488e-05
1.3778591592272275e-06
-9.64501411459592e-06
-6.889295796140132e-06
-1.240073243305171e-05
-9.64501411459592e-06
-1.377859159228559e-06
-1.240073243305171e-05
-2.8935042343786426e-05
-3.720219729915378e-05
-3.169076066224221e-05
-1.240073243305171e-05
6.8892957961388014e-06
-1.377859159228559e-06
-1.5156450751507488e-05
-4.133577477684346e-06
1.7912169069961946e-05
3.720219729915245e-05
3.444647898069667e-05
2.066788738841773e-05
2.3423605706873515e-05
4.271363393606403e-05
3.169076066224089e-05
2.3423605706873515e-05
2.3423605706873515e-05
1.2400732433050376e-05
6.8892957961388014e-06
-1.377859159228559e-06
-9.64501411459592e-06
-1.240073243305171e-05
1.3778591592272275e-06
6.8892957961388014e-06
-1.7912169069963278e-05
-3.169076066224221e-05
-2.6179324025330647e-05
-2.6179324025330647e-05
-3.4446478980697995e-05
-3.4446478980697995e-05
-2.066788738841907e-05
-2.6179324025330647e-05
-2.8935042343786426e-05
-3.995791561760957e-05
-1.240073243305171e-05
-4.133577477684346e-06
1.3778591592272275e-06
5.098078889143139e-05
0.00012814090180819342
0.00029072828259708476
0.0005497658045319286
0.0008418719462882423
0.001051306538490882
0.0010816194399938957
0.000896986312657358
0.0005414986495765614
0.00016672095826657444
-4.8225070572976926e-05
-0.0001171180285343716
-0.00011160659189746003
-9.507228198672531e-05
-7.302653543907902e-05
-6.475938048371164e-05
-6.475938048371164e-05
-7.57822537575348e-05
-6.475938048371164e-05
-5.9247943846800084e-05
-6.475938048371164e-05
-5.6492225528344285e-05
-5.098078889143272e-05
-5.9247943846800084e-05
-6.475938048371164e-05
-5.6492225528344285e-05
-3.720219729915378e-05
-2.066788738841907e-05
-4.5469352254521147e-05
-8.404940871290214e-05
-7.57822537575348e-05
-5.3736507209888505e-05
-5.098078889143272e-05
-5.9247943846800084e-05
-6.751509880216745e-05
-7.027081712062322e-05
-3.995791561760957e-05
-1.5156450751507488e-05
-2.066788738841907e-05
-3.995791561760957e-05
-4.2713633936065354e-05
-4.8225070572976926e-05
-3.169076066224221e-05
-6.889295796140132e-06
-4.133577477684346e-06
-1.240073243305171e-05
-2.066788738841907e-05
-2.066788738841907e-05
-1.240073243305171e-05
-1.240073243305171e-05
9.64501411459459e-06
9.64501411459459e-06
2.3423605706873515e-05
3.9957915617608246e-05
3.720219729915245e-05
4.546935225451981e-05
