-9.64501411459592e-06
-6.889295796140132e-06
-6.889295796140132e-06
4.133577477683014e-06
9.64501411459459e-06
9.64501411459459e-06
1.7912169069961946e-05
2.066788738841773e-05
1.2400732433050376e-05
4.133577477683014e-06
4.133577477683014e-06
1.3778591592272275e-06
-9.64501411459592e-06
-1.5156450751507488e-05
-2.8935042343786426e-05
-3.720219729915378e-05
-3.995791561760957e-05
-3.4446478980697995e-05
-4.5469352254521147e-05
-4.8225070572976926e-05
-4.5469352254521147e-05
-5.6492225528344285e-05
-7.302653543907902e-05
-9.507228198672531e-05
-0.00010058371862363688
-9.507228198672531e-05
-9.507228198672531e-05
-9.231656366826955e-05
-9.231656366826955e-05
-9.231656366826955e-05
-9.507228198672531e-05
-9.78280003051811e-05
-9.507228198672531e-05
-0.00010333943694209268
-9.507228198672531e-05
-9.507228198672531e-05
-0.00010333943694209268
-9.78280003051811e-05
-0.00010058371862363688
-0.00010885087357900426
-0.0001198737468528274
-0.00011160659189746003
-0.00010885087357900426
-0.0001171180285343716
-0.00010609515526054846
-9.507228198672531e-05
-9.507228198672531e-05
-9.507228198672531e-05
-9.231656366826955e-05
-0.00010058371862363688
-9.78280003051811e-05
-9.507228198672531e-05
-8.129369039444639e-05
-7.57822537575348e-05
-7.85379720759906e-05
-8.956084534981374e-05
-9.78280003051811e-05
-8.680512703135793e-05
-7.027081712062322e-05
-6.475938048371164e-05
-6.475938048371164e-05
-6.200366216525588e-05
-5.9247943846800084e-05
-5.6492225528344285e-05
-5.3736507209888505e-05
-5.098078889143272e-05
-6.751509880216745e-05
-6.200366216525588e-05
-5.098078889143272e-05
-5.9247943846800084e-05
-6.751509880216745e-05
-6.475938048371164e-05
-5.9247943846800084e-05
-5.9247943846800084e-05
-5.6492225528344285e-05
-5.9247943846800084e-05
-5.6492225528344285e-05
-5.6492225528344285e-05
-7.027081712062322e-05
-7.027081712062322e-05
-5.9247943846800084e-05
-6.200366216525588e-05
-6.475938048371164e-05
-7.027081712062322e-05
-6.751509880216745e-05
-6.200366216525588e-05
-6.200366216525588e-05
-6.751509880216745e-05
-7.027081712062322e-05
-7.85379720759906e-05
-7.027081712062322e-05
-4.5469352254521147e-05
-5.3736507209888505e-05
-5.098078889143272e-05
-3.4446478980697995e-05
-4.2713633936065354e-05
-4.5469352254521147e-05
-3.720219729915378e-05
-3.169076066224221e-05
-3.995791561760957e-05
-4.5469352254521147e-05
-3.720219729915378e-05
-2.8935042343786426e-05
-3.995791561760957e-05
-4.2713633936065354e-05
-5.098078889143272e-05
-5.9247943846800084e-05
-5.9247943846800084e-05
-6.475938048371164e-05
-6.200366216525588e-05
-6.751509880216745e-05
-7.027081712062322e-05
-6.200366216525588e-05
-6.475938048371164e-05
-6.751509880216745e-05
-7.302653543907902e-05
-7.302653543907902e-05
-7.85379720759906e-05
-7.57822537575348e-05
-7.85379720759906e-05
-7.027081712062322e-05
-6.475938048371164e-05
-6.475938048371164e-05
-6.475938048371164e-05
-4.8225070572976926e-05
-6.889295796140132e-06
3.444647898069667e-05
8.129369039444505e-05
0.0002383696345464249
0.0005580329594872961
0.0009355663691157388
0.001178069581139848
0.0011615352712291134
0.0009521006790264736
0.0006159030441748677
0.0002218353246356902
-3.720219729915378e-05
-0.00014191949340047367
-0.00016396523994811996
-0.00015569808499275262
-0.00014467521171892948
-0.0001336523384451063
-0.00013089662012665053
-0.00013089662012665053
-0.00012814090180819475
-0.00012814090180819475
-0.00013089662012665053
-0.00012538518348973897
-0.00012538518348973897
-0.0001226294651712832
-0.00010058371862363688
-8.956084534981374e-05
-9.507228198672531e-05
-9.78280003051811e-05
-0.00010885087357900426
-9.78280003051811e-05
-9.231656366826955e-05
-8.680512703135793e-05
-9.231656366826955e-05
-0.00010609515526054846
-0.0001198737468528274
-0.00011160659189746003
-8.956084534981374e-05
-7.57822537575348e-05
-7.57822537575348e-05
-7.85379720759906e-05
-8.129369039444639e-05
-7.85379720759906e-05
-7.57822537575348e-05
-6.751509880216745e-05
-7.302653543907902e-05
-6.475938048371164e-05
-5.9247943846800084e-05
-6.751509880216745e-05
-6.751509880216745e-05
-4.8225070572976926e-05
-4.5469352254521147e-05
-3.169076066224221e-05
-1.7912169069963278e-05
-2.066788738841907e-05
-1.240073243305171e-05
1.3778591592272275e-06
-4.133577477684346e-06
1.3778591592272275e-06
1.2400732433050376e-05
2.066788738841773e-05
2.8935042343785094e-05
2.066788738841773e-05
1.2400732433050376e-05
1.7912169069961946e-05
1.5156450751506162e-05
-4.133577477684346e-06
-1.240073243305171e-05
9.64501411459459e-06
6.8892957961388014e-06
-1.377859159228559e-06
-1.377859159228559e-06
-1.5156450751507488e-05
-2.8935042343786426e-05
-3.995791561760957e-05
-3.995791561760957e-05
-3.995791561760957e-05
-5.6492225528344285e-05
-7.302653543907902e-05
-7.027081712062322e-05
-7.027081712062322e-05
-6.751509880216745e-05
-6.200366216525588e-05
-7.302653543907902e-05
-7.85379720759906e-05
-8.404940871290214e-05
-8.404940871290214e-05
-8.956084534981374e-05
-8.129369039444639e-05
-7.302653543907902e-05
-7.85379720759906e-05
-7.85379720759906e-05
-7.85379720759906e-05
-8.129369039444639e-05
-9.231656366826955e-05
-0.00010333943694209268
-9.231656366826955e-05
-8.129369039444639e-05
-8.129369039444639e-05
-8.404940871290214e-05
-8.129369039444639e-05
-8.404940871290214e-05
-8.404940871290214e-05
-8.956084534981374e-05
-9.231656366826955e-05
-9.231656366826955e-05
-8.956084534981374e-05
-9.507228198672531e-05
-8.404940871290214e-05
-8.129369039444639e-05
-7.57822537575348e-05
-6.751509880216745e-05
-5.9247943846800084e-05
-5.6492225528344285e-05
-5.6492225528344285e-05
-6.200366216525588e-05
-5.9247943846800084e-05
-4.2713633936065354e-05
-4.2713633936065354e-05
-4.5469352254521147e-05
-3.995791561760957e-05
-2.8935042343786426e-05
-2.8935042343786426e-05
-3.169076066224221e-05
-3.720219729915378e-05
-3.995791561760957e-05
-5.3736507209888505e-05
-6.200366216525588e-05
-4.5469352254521147e-05
-3.4446478980697995e-05
-2.8935042343786426e-05
-2.8935042343786426e-05
-2.8935042343786426e-05
-3.169076066224221e-05
-3.169076066224221e-05
-3.4446478980697995e-05
-3.995791561760957e-05
-3.720219729915378e-05
-3.720219729915378e-05
-3.995791561760957e-05
-3.720219729915378e-05
-3.720219729915378e-05
-4.2713633936065354e-05
-3.4446478980697995e-05
-3.4446478980697995e-05
-3.995791561760957e-05
-3.995791561760957e-05
-3.720219729915378e-05
-3.720219729915378e-05
-3.4446478980697995e-05
-3.169076066224221e-05
-3.4446478980697995e-05
-3.4446478980697995e-05
-4.2713633936065354e-05
-3.169076066224221e-05
-2.6179324025330647e-05
-4.5469352254521147e-05
-3.995791561760957e-05
-1.240073243305171e-05
-9.64501411459592e-06
-1.7912169069963278e-05
-1.5156450751507488e-05
-1.240073243305171e-05
-3.169076066224221e-05
-4.5469352254521147e-05
-4.8225070572976926e-05
-5.6492225528344285e-05
-5.6492225528344285e-05
-5.098078889143272e-05
-5.3736507209888505e-05
-6.475938048371164e-05
-6.200366216525588e-05
-6.475938048371164e-05
-5.6492225528344285e-05
-5.9247943846800084e-05
-5.6492225528344285e-05
-6.475938048371164e-05
-5.9247943846800084e-05
-4.2713633936065354e-05
-3.720219729915378e-05
-1.7912169069963278e-05
1.2400732433050376e-05
6.475938048371032e-05
0.00021632388799877858
0.0005001628747997245
0.0008749405661097116
0.0011835810177767598
0.0012634968490119777
0.0011091766231784534
0.0007757347066453035
0.000340331212329289
1.5156450751506162e-05
-0.00011160659189746003
-0.0001391637750820179
-0.0001364080567635621
-0.00014467521171892948
-0.0001364080567635621
-0.0001171180285343716
-0.00010609515526054846
-0.00010885087357900426
-0.00011160659189746003
-0.00010885087357900426
-0.00010609515526054846
-0.00010885087357900426
-0.00010885087357900426
-0.00010333943694209268
-0.00010609515526054846
-0.00010609515526054846
-9.78280003051811e-05
-8.956084534981374e-05
-8.680512703135793e-05
-9.231656366826955e-05
-0.00010058371862363688
-0.00011436231021591582
-0.00010058371862363688
-6.475938048371164e-05
-6.200366216525588e-05
-5.9247943846800084e-05
-6.475938048371164e-05
-7.302653543907902e-05
-7.027081712062322e-05
-5.9247943846800084e-05
-6.475938048371164e-05
-6.475938048371164e-05
-5.9247943846800084e-05
-5.9247943846800084e-05
-6.200366216525588e-05
-5.9247943846800084e-05
-4.5469352254521147e-05
-3.4446478980697995e-05
-2.8935042343786426e-05
-2.6179324025330647e-05
-3.169076066224221e-05
-3.4446478980697995e-05
-2.6179324025330647e-05
-1.5156450751507488e-05
-6.889295796140132e-06
9.64501411459459e-06
2.3423605706873515e-05
3.720219729915245e-05
2.8935042343785094e-05
1.5156450751506162e-05
3.444647898069667e-05
5.098078889143139e-05
5.9247943846798756e-05
5.9247943846798756e-05
5.9247943846798756e-05
5.373650720988717e-05
4.271363393606403e-05
2.8935042343785094e-05
3.444647898069667e-05
2.3423605706873515e-05
9.64501411459459e-06
4.133577477683014e-06
1.3778591592272275e-06
1.3778591592272275e-06
-4.133577477684346e-06
-1.5156450751507488e-05
-2.8935042343786426e-05
-3.720219729915378e-05
-3.720219729915378e-05
-5.3736507209888505e-05
-7.027081712062322e-05
-7.57822537575348e-05
-5.9247943846800084e-05
-5.6492225528344285e-05
-6.475938048371164e-05
-6.751509880216745e-05
-7.57822537575348e-05
-7.57822537575348e-05
-5.3736507209888505e-05
-4.5469352254521147e-05
-5.6492225528344285e-05
-6.475938048371164e-05
-5.3736507209888505e-05
-6.200366216525588e-05
-5.098078889143272e-05
-5.3736507209888505e-05
-6.475938048371164e-05
-6.200366216525588e-05
-5.3736507209888505e-05
-5.9247943846800084e-05
-5.9247943846800084e-05
-6.475938048371164e-05
-7.302653543907902e-05
-7.027081712062322e-05
-6.751509880216745e-05
-7.57822537575348e-05
-7.027081712062322e-05
-6.475938048371164e-05
-5.9247943846800084e-05
-5.6492225528344285e-05
-5.098078889143272e-05
-5.3736507209888505e-05
-5.6492225528344285e-05
-5.9247943846800084e-05
-7.027081712062322e-05
-6.475938048371164e-05
-4.8225070572976926e-05
-3.720219729915378e-05
-3.720219729915378e-05
-2.6179324025330647e-05
-2.342360570687485e-05
-2.342360570687485e-05
-3.169076066224221e-05
-1.5156450751507488e-05
-6.889295796140132e-06
-1.240073243305171e-05
-2.8935042343786426e-05
-3.720219729915378e-05
-3.169076066224221e-05
-2.6179324025330647e-05
-2.6179324025330647e-05
-3.169076066224221e-05
-3.4446478980697995e-05
-2.6179324025330647e-05
-2.8935042343786426e-05
-3.720219729915378e-05
-2.8935042343786426e-05
-5.098078889143272e-05
-3.720219729915378e-05
-2.6179324025330647e-05
-2.6179324025330647e-05
-2.8935042343786426e-05
-2.066788738841907e-05
-9.64501411459592e-06
-9.64501411459592e-06
-9.64501411459592e-06
-1.5156450751507488e-05
-1.240073243305171e-05
1.3778591592272275e-06
9.64501411459459e-06
6.8892957961388014e-06
6.8892957961388014e-06
-9.64501411459592e-06
-9.64501411459592e-06
-1.377859159228559e-06
9.64501411459459e-06
6.8892957961388014e-06
-6.889295796140132e-06
1.3778591592272275e-06
-1.377859159228559e-06
1.3778591592272275e-06
-4.133577477684346e-06
-2.8935042343786426e-05
-3.995791561760957e-05
-2.6179324025330647e-05
-2.342360570687485e-05
-2.342360570687485e-05
-2.066788738841907e-05
-2.066788738841907e-05
-2.6179324025330647e-05
-2.8935042343786426e-05
-2.6179324025330647e-05
-4.2713633936065354e-05
-4.5469352254521147e-05
-2.6179324025330647e-05
-2.066788738841907e-05
-3.995791561760957e-05
-2.8935042343786426e-05
9.64501411459459e-06
6.200366216525454e-05
0.00014191949340047234
0.00034584264896620056
0.0006820402838178067
0.0010678408484016168
0.0013516798352025624
0.0013902598916609437
0.0011863367360952157
0.0003072625925078196
-4.133577477684346e-06
-9.78280003051811e-05
-0.0001171180285343716
-0.00011436231021591582
-8.956084534981374e-05
-7.85379720759906e-05
-8.680512703135793e-05
-8.680512703135793e-05
-8.404940871290214e-05
-8.680512703135793e-05
-8.129369039444639e-05
-8.680512703135793e-05
-8.956084534981374e-05
-8.404940871290214e-05
-8.404940871290214e-05
-8.680512703135793e-05
-8.680512703135793e-05
-7.302653543907902e-05
-6.475938048371164e-05
-7.027081712062322e-05
-8.129369039444639e-05
-7.85379720759906e-05
-8.956084534981374e-05
-9.78280003051811e-05
-8.129369039444639e-05
-6.751509880216745e-05
-6.200366216525588e-05
-6.751509880216745e-05
-5.3736507209888505e-05
-5.3736507209888505e-05
-6.200366216525588e-05
-6.200366216525588e-05
-5.6492225528344285e-05
-4.8225070572976926e-05
-4.2713633936065354e-05
-4.8225070572976926e-05
-4.2713633936065354e-05
-3.720219729915378e-05
-3.720219729915378e-05
-3.995791561760957e-05
-4.2713633936065354e-05
-3.169076066224221e-05
-1.7912169069963278e-05
-1.5156450751507488e-05
-4.133577477684346e-06
6.8892957961388014e-06
1.7912169069961946e-05
1.7912169069961946e-05
2.6179324025329308e-05
2.6179324025329308e-05
3.444647898069667e-05
5.098078889143139e-05
6.200366216525454e-05
5.9247943846798756e-05
6.751509880216611e-05
7.578225375753347e-05
7.30265354390777e-05
6.475938048371032e-05
6.475938048371032e-05
5.649222552834297e-05
5.098078889143139e-05
4.546935225451981e-05
3.169076066224089e-05
2.6179324025329308e-05
9.64501411459459e-06
4.133577477683014e-06
-4.133577477684346e-06
-1.240073243305171e-05
-2.342360570687485e-05
-3.169076066224221e-05
-3.169076066224221e-05
-2.6179324025330647e-05
-4.5469352254521147e-05
-5.9247943846800084e-05
-4.5469352254521147e-05
-3.4446478980697995e-05
-5.3736507209888505e-05
-5.098078889143272e-05
-3.4446478980697995e-05
-4.2713633936065354e-05
-4.5469352254521147e-05
-3.4446478980697995e-05
-4.2713633936065354e-05
-3.169076066224221e-05
-3.4446478980697995e-05
-4.2713633936065354e-05
-4.2713633936065354e-05
-3.169076066224221e-05
-3.169076066224221e-05
-2.8935042343786426e-05
-3.4446478980697995e-05
-4.2713633936065354e-05
-5.098078889143272e-05
-4.8225070572976926e-05
-5.3736507209888505e-05
-7.302653543907902e-05
-6.751509880216745e-05
-5.098078889143272e-05
-4.8225070572976926e-05
-5.098078889143272e-05
-4.2713633936065354e-05
-5.9247943846800084e-05
-5.3736507209888505e-05
-4.5469352254521147e-05
-4.5469352254521147e-05
-5.098078889143272e-05
-4.8225070572976926e-05
-3.720219729915378e-05
-2.342360570687485e-05
-2.066788738841907e-05
-2.066788738841907e-05
-3.169076066224221e-05
-3.720219729915378e-05
-3.4446478980697995e-05
-3.169076066224221e-05
-3.4446478980697995e-05
-3.169076066224221e-05
-3.4446478980697995e-05
-3.4446478980697995e-05
-4.2713633936065354e-05
-3.169076066224221e-05
-1.7912169069963278e-05
-1.240073243305171e-05
-1.240073243305171e-05
-2.8935042343786426e-05
-2.066788738841907e-05
-1.377859159228559e-06
-9.64501411459592e-06
-2.6179324025330647e-05
-2.066788738841907e-05
-2.342360570687485e-05
-2.342360570687485e-05
-1.5156450751507488e-05
-6.889295796140132e-06
-4.133577477684346e-06
-2.066788738841907e-05
-2.342360570687485e-05
-1.7912169069963278e-05
-1.7912169069963278e-05
-1.5156450751507488e-05
-1.5156450751507488e-05
-9.64501411459592e-06
-1.240073243305171e-05
4.133577477683014e-06
-4.133577477684346e-06
-1.377859159228559e-06
9.64501411459459e-06
6.8892957961388014e-06
6.8892957961388014e-06
-1.377859159228559e-06
6.8892957961388014e-06
1.5156450751506162e-05
4.133577477683014e-06
1.3778591592272275e-06
4.133577477683014e-06
-4.133577477684346e-06
-1.240073243305171e-05
-1.5156450751507488e-05
-1.5156450751507488e-05
-1.5156450751507488e-05
-2.066788738841907e-05
-3.169076066224221e-05
-3.169076066224221e-05
-2.6179324025330647e-05
-2.8935042343786426e-05
-2.8935042343786426e-05
-3.169076066224221e-05
-3.4446478980697995e-05
-3.720219729915378e-05
-3.995791561760957e-05
-3.720219729915378e-05
-3.169076066224221e-05
-9.64501411459592e-06
2.3423605706873515e-05
7.578225375753347e-05
0.00022459104295414594
0.0005001628747997245
0.0008776962844281674
0.001244206820782787
0.0014095499198901345
0.0013103440604257258
0.0010017036087586776
0.0005414986495765614
0.00013640805676356078
-6.200366216525588e-05
-0.00011160659189746003
-0.00010333943694209268
-9.507228198672531e-05
-0.00010058371862363688
-9.507228198672531e-05
-9.507228198672531e-05
-9.231656366826955e-05
-8.956084534981374e-05
-9.231656366826955e-05
-9.78280003051811e-05
-9.507228198672531e-05
-8.680512703135793e-05
-9.231656366826955e-05
-0.00010333943694209268
-0.00010885087357900426
-9.78280003051811e-05
-8.956084534981374e-05
-8.404940871290214e-05
-8.956084534981374e-05
-8.680512703135793e-05
-7.302653543907902e-05
-7.027081712062322e-05
-7.57822537575348e-05
-7.302653543907902e-05
-7.57822537575348e-05
-6.751509880216745e-05
-6.475938048371164e-05
-6.475938048371164e-05
-5.9247943846800084e-05
-5.098078889143272e-05
-4.8225070572976926e-05
-5.6492225528344285e-05
-6.200366216525588e-05
-6.200366216525588e-05
-5.098078889143272e-05
-4.5469352254521147e-05
-6.200366216525588e-05
-6.200366216525588e-05
-4.8225070572976926e-05
-3.169076066224221e-05
-1.7912169069963278e-05
-9.64501411459592e-06
6.8892957961388014e-06
4.133577477683014e-06
4.133577477683014e-06
1.5156450751506162e-05
3.720219729915245e-05
4.271363393606403e-05
4.546935225451981e-05
5.098078889143139e-05
5.373650720988717e-05
6.475938048371032e-05
6.751509880216611e-05
5.9247943846798756e-05
5.373650720988717e-05
4.546935225451981e-05
5.098078889143139e-05
6.475938048371032e-05
5.649222552834297e-05
1.7912169069961946e-05
-9.64501411459592e-06
1.3778591592272275e-06
2.066788738841773e-05
2.066788738841773e-05
6.8892957961388014e-06
1.3778591592272275e-06
-9.64501411459592e-06
-1.5156450751507488e-05
-1.7912169069963278e-05
-3.720219729915378e-05
-5.6492225528344285e-05
-4.8225070572976926e-05
-3.995791561760957e-05
-3.4446478980697995e-05
-4.2713633936065354e-05
-3.995791561760957e-05
-3.995791561760957e-05
-4.5469352254521147e-05
-4.8225070572976926e-05
-4.8225070572976926e-05
-4.5469352254521147e-05
-4.2713633936065354e-05
-4.2713633936065354e-05
-5.9247943846800084e-05
-5.9247943846800084e-05
-3.4446478980697995e-05
-3.169076066224221e-05
-3.169076066224221e-05
-3.995791561760957e-05
-3.720219729915378e-05
-3.720219729915378e-05
-4.2713633936065354e-05
-4.2713633936065354e-05
-4.8225070572976926e-05
-5.9247943846800084e-05
-6.751509880216745e-05
-6.200366216525588e-05
-5.6492225528344285e-05
-4.5469352254521147e-05
-3.720219729915378e-05
-4.2713633936065354e-05
-3.4446478980697995e-05
-3.4446478980697995e-05
-3.720219729915378e-05
-3.995791561760957e-05
-5.3736507209888505e-05
-6.200366216525588e-05
-4.8225070572976926e-05
-2.066788738841907e-05
-1.7912169069963278e-05
-2.6179324025330647e-05
-3.4446478980697995e-05
-3.4446478980697995e-05
-2.6179324025330647e-05
-2.342360570687485e-05
-2.066788738841907e-05
-2.6179324025330647e-05
-2.8935042343786426e-05
-2.8935042343786426e-05
-1.7912169069963278e-05
-2.342360570687485e-05
-2.8935042343786426e-05
-2.342360570687485e-05
-2.066788738841907e-05
-2.8935042343786426e-05
-3.169076066224221e-05
-3.720219729915378e-05
-3.720219729915378e-05
-2.342360570687485e-05
-1.7912169069963278e-05
-2.342360570687485e-05
-5.098078889143272e-05
-6.200366216525588e-05
-3.720219729915378e-05
-6.889295796140132e-06
-1.240073243305171e-05
-1.7912169069963278e-05
-9.64501411459592e-06
-1.240073243305171e-05
-2.6179324025330647e-05
-2.066788738841907e-05
-6.889295796140132e-06
9.64501411459459e-06
1.5156450751506162e-05
9.64501411459459e-06
1.3778591592272275e-06
1.3778591592272275e-06
6.8892957961388014e-06
1.3778591592272275e-06
-4.133577477684346e-06
1.3778591592272275e-06
1.3778591592272275e-06
1.3778591592272275e-06
-4.133577477684346e-06
-9.64501411459592e-06
-2.8935042343786426e-05
-5.3736507209888505e-05
-3.995791561760957e-05
-2.8935042343786426e-05
-3.169076066224221e-05
-2.6179324025330647e-05
-2.8935042343786426e-05
-3.4446478980697995e-05
-2.6179324025330647e-05
-1.7912169069963278e-05
-2.066788738841907e-05
-3.4446478980697995e-05
-2.8935042343786426e-05
-1.5156450751507488e-05
-4.133577477684346e-06
2.3423605706873515e-05
5.373650720988717e-05
9.23165636682682e-05
0.000172232394903486
0.00038993414206149314
0.0007564446784161128
0.0011146880598153653
0.0012965654688334468
0.0012359396658274198
0.000985169298847943
0.0005635443961242077
0.00015845380331120705
-3.995791561760957e-05
-8.956084534981374e-05
-8.956084534981374e-05
-0.00010058371862363688
-0.00011160659189746003
-9.78280003051811e-05
-8.404940871290214e-05
-8.680512703135793e-05
-7.85379720759906e-05
-8.129369039444639e-05
-8.680512703135793e-05
-8.129369039444639e-05
-7.57822537575348e-05
-7.57822537575348e-05
-7.302653543907902e-05
-7.57822537575348e-05
-7.57822537575348e-05
-7.302653543907902e-05
-5.9247943846800084e-05
-5.3736507209888505e-05
-5.9247943846800084e-05
-6.751509880216745e-05
-6.751509880216745e-05
-6.475938048371164e-05
-8.129369039444639e-05
-7.027081712062322e-05
-5.9247943846800084e-05
-4.2713633936065354e-05
-3.720219729915378e-05
-4.2713633936065354e-05
-4.5469352254521147e-05
-4.8225070572976926e-05
-4.5469352254521147e-05
-3.720219729915378e-05
-3.720219729915378e-05
-4.2713633936065354e-05
-3.995791561760957e-05
-3.4446478980697995e-05
-2.066788738841907e-05
-1.5156450751507488e-05
-9.64501411459592e-06
-1.377859159228559e-06
6.8892957961388014e-06
1.2400732433050376e-05
1.7912169069961946e-05
1.2400732433050376e-05
2.066788738841773e-05
2.3423605706873515e-05
2.6179324025329308e-05
4.546935225451981e-05
6.475938048371032e-05
7.30265354390777e-05
7.30265354390777e-05
6.751509880216611e-05
7.02708171206219e-05
5.9247943846798756e-05
5.098078889143139e-05
5.9247943846798756e-05
5.9247943846798756e-05
3.9957915617608246e-05
3.169076066224089e-05
2.6179324025329308e-05
1.7912169069961946e-05
1.2400732433050376e-05
4.133577477683014e-06
-6.889295796140132e-06
-1.5156450751507488e-05
-2.342360570687485e-05
-3.4446478980697995e-05
-3.720219729915378e-05
-4.5469352254521147e-05
-5.3736507209888505e-05
-3.995791561760957e-05
-3.995791561760957e-05
-3.720219729915378e-05
-3.4446478980697995e-05
-3.995791561760957e-05
-4.5469352254521147e-05
-4.8225070572976926e-05
-4.5469352254521147e-05
-3.995791561760957e-05
-3.169076066224221e-05
-2.8935042343786426e-05
-3.720219729915378e-05
-4.8225070572976926e-05
-5.3736507209888505e-05
-5.9247943846800084e-05
-5.6492225528344285e-05
-5.098078889143272e-05
-5.6492225528344285e-05
-4.8225070572976926e-05
-4.5469352254521147e-05
-4.5469352254521147e-05
-4.8225070572976926e-05
-5.6492225528344285e-05
-4.5469352254521147e-05
-5.3736507209888505e-05
-5.3736507209888505e-05
-3.720219729915378e-05
-2.6179324025330647e-05
-2.8935042343786426e-05
-2.342360570687485e-05
-1.7912169069963278e-05
-2.066788738841907e-05
-1.5156450751507488e-05
-1.240073243305171e-05
-2.066788738841907e-05
-2.342360570687485e-05
-2.6179324025330647e-05
-1.240073243305171e-05
-1.240073243305171e-05
-9.64501411459592e-06
-6.889295796140132e-06
-6.889295796140132e-06
4.133577477683014e-06
-1.377859159228559e-06
-6.889295796140132e-06
-1.7912169069963278e-05
-1.5156450751507488e-05
-1.5156450751507488e-05
-1.240073243305171e-05
-1.377859159228559e-06
-1.240073243305171e-05
-1.5156450751507488e-05
-1.7912169069963278e-05
-2.066788738841907e-05
-6.889295796140132e-06
1.3778591592272275e-06
1.3778591592272275e-06
1.3778591592272275e-06
1.3778591592272275e-06
1.3778591592272275e-06
-4.133577477684346e-06
1.3778591592272275e-06
-1.377859159228559e-06
-4.133577477684346e-06
-1.377859159228559e-06
1.3778591592272275e-06
6.8892957961388014e-06
6.8892957961388014e-06
6.8892957961388014e-06
4.133577477683014e-06
1.2400732433050376e-05
1.3778591592272275e-06
4.133577477683014e-06
4.133577477683014e-06
-1.240073243305171e-05
-9.64501411459592e-06
-6.889295796140132e-06
-1.240073243305171e-05
-1.377859159228559e-06
1.2400732433050376e-05
1.3778591592272275e-06
-1.377859159228559e-06
-6.889295796140132e-06
-9.64501411459592e-06
-2.066788738841907e-05
-2.6179324025330647e-05
-2.066788738841907e-05
-1.7912169069963278e-05
-2.6179324025330647e-05
-2.342360570687485e-05
-2.8935042343786426e-05
-2.6179324025330647e-05
-1.5156450751507488e-05
-1.240073243305171e-05
-1.377859159228559e-06
2.066788738841773e-05
4.82250705729756e-05
7.02708171206219e-05
0.00012814090180819342
0.00032655262073701005
0.0006517273823147929
0.0010237493553063243
0.001244206820782787
0.0012166496375982292
0.0009796578622110316
0.0005800787060349425
0.00017774383154039756
-3.720219729915378e-05
-0.00010333943694209268
-0.00010609515526054846
-0.00010333943694209268
-9.78280003051811e-05
-9.231656366826955e-05
-8.129369039444639e-05
-6.475938048371164e-05
-7.027081712062322e-05
-7.302653543907902e-05
-6.751509880216745e-05
-6.475938048371164e-05
-6.751509880216745e-05
-7.85379720759906e-05
-6.751509880216745e-05
-6.751509880216745e-05
-6.475938048371164e-05
-6.475938048371164e-05
-6.751509880216745e-05
-5.9247943846800084e-05
-6.751509880216745e-05
-7.85379720759906e-05
-5.6492225528344285e-05
-3.720219729915378e-05
-3.4446478980697995e-05
-3.720219729915378e-05
-3.995791561760957e-05
-4.2713633936065354e-05
-4.2713633936065354e-05
-4.5469352254521147e-05
-4.5469352254521147e-05
-3.720219729915378e-05
-3.169076066224221e-05
-2.342360570687485e-05
-2.6179324025330647e-05
-2.8935042343786426e-05
-2.342360570687485e-05
-2.066788738841907e-05
-1.5156450751507488e-05
-6.889295796140132e-06
-1.377859159228559e-06
-1.240073243305171e-05
4.133577477683014e-06
9.64501411459459e-06
1.3778591592272275e-06
2.066788738841773e-05
5.373650720988717e-05
6.751509880216611e-05
6.200366216525454e-05
6.751509880216611e-05
7.02708171206219e-05
7.30265354390777e-05
8.404940871290084e-05
7.578225375753347e-05
6.475938048371032e-05
5.649222552834297e-05
5.649222552834297e-05
5.649222552834297e-05
5.373650720988717e-05
5.373650720988717e-05
3.444647898069667e-05
2.6179324025329308e-05
1.7912169069961946e-05
1.5156450751506162e-05
1.5156450751506162e-05
1.2400732433050376e-05
-4.133577477684346e-06
-9.64501411459592e-06
-1.5156450751507488e-05
-2.342360570687485e-05
-3.169076066224221e-05
-3.4446478980697995e-05
-3.169076066224221e-05
-2.6179324025330647e-05
-2.8935042343786426e-05
-2.8935042343786426e-05
-3.720219729915378e-05
-2.8935042343786426e-05
-1.7912169069963278e-05
-3.169076066224221e-05
-4.2713633936065354e-05
-3.720219729915378e-05
-3.4446478980697995e-05
-3.4446478980697995e-05
-2.8935042343786426e-05
-2.6179324025330647e-05
-2.8935042343786426e-05
-3.995791561760957e-05
-3.720219729915378e-05
-3.720219729915378e-05
-4.2713633936065354e-05
-5.3736507209888505e-05
-5.9247943846800084e-05
-5.6492225528344285e-05
-2.8935042343786426e-05
-2.342360570687485e-05
-4.2713633936065354e-05
-5.6492225528344285e-05
-6.200366216525588e-05
-5.3736507209888505e-05
-3.720219729915378e-05
-2.8935042343786426e-05
-2.342360570687485e-05
-1.5156450751507488e-05
-2.342360570687485e-05
-2.342360570687485e-05
-6.889295796140132e-06
1.3778591592272275e-06
-4.133577477684346e-06
-4.133577477684346e-06
-1.377859159228559e-06
1.3778591592272275e-06
-1.377859159228559e-06
6.8892957961388014e-06
4.133577477683014e-06
-9.64501411459592e-06
-1.5156450751507488e-05
-1.240073243305171e-05
6.8892957961388014e-06
9.64501411459459e-06
-4.133577477684346e-06
-1.5156450751507488e-05
-9.64501411459592e-06
-1.240073243305171e-05
-1.240073243305171e-05
-2.066788738841907e-05
-2.066788738841907e-05
-4.133577477684346e-06
9.64501411459459e-06
1.2400732433050376e-05
-4.133577477684346e-06
-1.5156450751507488e-05
-1.5156450751507488e-05
-4.133577477684346e-06
1.3778591592272275e-06
1.3778591592272275e-06
1.3778591592272275e-06
6.8892957961388014e-06
1.3778591592272275e-06
9.64501411459459e-06
1.5156450751506162e-05
1.5156450751506162e-05
1.2400732433050376e-05
9.64501411459459e-06
9.64501411459459e-06
6.8892957961388014e-06
4.133577477683014e-06
1.5156450751506162e-05
1.7912169069961946e-05
9.64501411459459e-06
-4.133577477684346e-06
-1.240073243305171e-05
-1.7912169069963278e-05
-3.720219729915378e-05
-3.4446478980697995e-05
-1.5156450751507488e-05
-1.5156450751507488e-05
-3.169076066224221e-05
-3.4446478980697995e-05
-2.342360570687485e-05
-1.7912169069963278e-05
-2.8935042343786426e-05
-3.4446478980697995e-05
-2.342360570687485e-05
-2.342360570687485e-05
-1.5156450751507488e-05
-4.133577477684346e-06
1.2400732433050376e-05
3.9957915617608246e-05
6.751509880216611e-05
0.00017774383154039756
0.00041197988860913943
0.0011312223697260999
0.0013075883421072702
0.001244206820782787
0.0009686349889372082
0.0005414986495765614
0.00014191949340047234
-7.302653543907902e-05
-0.0001364080567635621
-0.0001226294651712832
-0.00010058371862363688
-9.78280003051811e-05
-6.475938048371164e-05
-4.8225070572976926e-05
-6.751509880216745e-05
-7.027081712062322e-05
-7.027081712062322e-05
-7.027081712062322e-05
-6.475938048371164e-05
-5.9247943846800084e-05
-6.751509880216745e-05
-5.9247943846800084e-05
-5.3736507209888505e-05
-5.6492225528344285e-05
-5.6492225528344285e-05
-4.8225070572976926e-05
-5.6492225528344285e-05
-5.6492225528344285e-05
-5.6492225528344285e-05
-4.2713633936065354e-05
-3.720219729915378e-05
-5.6492225528344285e-05
-7.57822537575348e-05
-7.027081712062322e-05
-4.5469352254521147e-05
-2.6179324025330647e-05
-3.995791561760957e-05
-3.720219729915378e-05
-2.6179324025330647e-05
-2.066788738841907e-05
-1.7912169069963278e-05
-1.7912169069963278e-05
-9.64501411459592e-06
-9.64501411459592e-06
-1.240073243305171e-05
-6.889295796140132e-06
-6.889295796140132e-06
-1.240073243305171e-05
4.133577477683014e-06
1.2400732433050376e-05
2.6179324025329308e-05
3.169076066224089e-05
3.9957915617608246e-05
5.098078889143139e-05
5.649222552834297e-05
6.200366216525454e-05
7.30265354390777e-05
7.02708171206219e-05
4.271363393606403e-05
5.098078889143139e-05
8.404940871290084e-05
9.23165636682682e-05
8.68051270313566e-05
8.956084534981241e-05
8.68051270313566e-05
8.404940871290084e-05
6.475938048371032e-05
5.373650720988717e-05
4.271363393606403e-05
3.9957915617608246e-05
2.8935042343785094e-05
2.066788738841773e-05
1.2400732433050376e-05
1.2400732433050376e-05
4.133577477683014e-06
-4.133577477684346e-06
-6.889295796140132e-06
-1.5156450751507488e-05
-2.342360570687485e-05
-1.7912169069963278e-05
-1.240073243305171e-05
-3.995791561760957e-05
-5.098078889143272e-05
-3.169076066224221e-05
-2.6179324025330647e-05
-2.066788738841907e-05
-1.5156450751507488e-05
-9.64501411459592e-06
-1.5156450751507488e-05
-1.240073243305171e-05
-6.889295796140132e-06
-1.5156450751507488e-05
-2.6179324025330647e-05
-2.8935042343786426e-05
-2.066788738841907e-05
-2.342360570687485e-05
-2.6179324025330647e-05
-2.342360570687485e-05
-2.8935042343786426e-05
-2.6179324025330647e-05
-2.8935042343786426e-05
-2.6179324025330647e-05
-2.342360570687485e-05
-2.6179324025330647e-05
-2.6179324025330647e-05
-1.7912169069963278e-05
-2.342360570687485e-05
-2.6179324025330647e-05
-2.8935042343786426e-05
-2.066788738841907e-05
-1.240073243305171e-05
-1.377859159228559e-06
-6.889295796140132e-06
-9.64501411459592e-06
-1.377859159228559e-06
1.3778591592272275e-06
-1.377859159228559e-06
1.3778591592272275e-06
4.133577477683014e-06
4.133577477683014e-06
6.8892957961388014e-06
1.2400732433050376e-05
1.2400732433050376e-05
6.8892957961388014e-06
4.133577477683014e-06
4.133577477683014e-06
4.133577477683014e-06
-1.377859159228559e-06
6.8892957961388014e-06
9.64501411459459e-06
1.2400732433050376e-05
1.3778591592272275e-06
1.5156450751506162e-05
4.133577477683014e-06
-9.64501411459592e-06
-4.133577477684346e-06
2.066788738841773e-05
2.6179324025329308e-05
2.8935042343785094e-05
2.3423605706873515e-05
2.3423605706873515e-05
2.066788738841773e-05
1.5156450751506162e-05
4.133577477683014e-06
9.64501411459459e-06
2.6179324025329308e-05
2.8935042343785094e-05
3.169076066224089e-05
2.8935042343785094e-05
2.6179324025329308e-05
2.8935042343785094e-05
4.271363393606403e-05
4.546935225451981e-05
3.720219729915245e-05
3.444647898069667e-05
2.3423605706873515e-05
2.6179324025329308e-05
3.169076066224089e-05
2.6179324025329308e-05
1.5156450751506162e-05
4.133577477683014e-06
-2.066788738841907e-05
-1.7912169069963278e-05
-1.377859159228559e-06
-1.377859159228559e-06
-1.377859159228559e-06
1.3778591592272275e-06
-6.889295796140132e-06
-4.133577477684346e-06
-1.240073243305171e-05
-1.5156450751507488e-05
-9.64501411459592e-06
-1.377859159228559e-06
4.133577477683014e-06
2.3423605706873515e-05
6.200366216525454e-05
0.00012262946517128183
0.00026592681773098274
0.0005525215228503846
0.0009355663691157388
0.001271764003967345
0.0014095499198901345
0.0013048326237888143
0.000985169298847943
0.0005194529030289152
0.0001253851834897376
-6.751509880216745e-05
-0.00010333943694209268
-8.680512703135793e-05
-7.85379720759906e-05
-7.57822537575348e-05
-7.027081712062322e-05
-7.57822537575348e-05
-6.751509880216745e-05
-5.9247943846800084e-05
-5.9247943846800084e-05
-6.475938048371164e-05
-5.6492225528344285e-05
-5.9247943846800084e-05
-5.9247943846800084e-05
-6.200366216525588e-05
-6.200366216525588e-05
-6.200366216525588e-05
-6.200366216525588e-05
-6.200366216525588e-05
-6.751509880216745e-05
-5.6492225528344285e-05
-4.8225070572976926e-05
-4.8225070572976926e-05
-4.5469352254521147e-05
-5.9247943846800084e-05
-5.9247943846800084e-05
-5.098078889143272e-05
-4.5469352254521147e-05
-2.6179324025330647e-05
-2.066788738841907e-05
-2.8935042343786426e-05
-3.995791561760957e-05
-4.2713633936065354e-05
-3.4446478980697995e-05
-2.8935042343786426e-05
-2.6179324025330647e-05
-1.7912169069963278e-05
-6.889295796140132e-06
-1.7912169069963278e-05
-1.240073243305171e-05
-4.133577477684346e-06
1.3778591592272275e-06
6.8892957961388014e-06
1.2400732433050376e-05
1.7912169069961946e-05
2.066788738841773e-05
4.271363393606403e-05
5.649222552834297e-05
5.9247943846798756e-05
6.751509880216611e-05
6.751509880216611e-05
7.02708171206219e-05
7.02708171206219e-05
7.30265354390777e-05
8.129369039444505e-05
8.129369039444505e-05
7.578225375753347e-05
7.30265354390777e-05
7.02708171206219e-05
7.02708171206219e-05
6.200366216525454e-05
5.098078889143139e-05
4.82250705729756e-05
4.271363393606403e-05
2.3423605706873515e-05
1.2400732433050376e-05
4.133577477683014e-06
4.133577477683014e-06
9.64501411459459e-06
-6.889295796140132e-06
-1.7912169069963278e-05
-6.889295796140132e-06
-2.6179324025330647e-05
-2.6179324025330647e-05
-1.5156450751507488e-05
-2.6179324025330647e-05
-2.066788738841907e-05
-1.240073243305171e-05
-2.066788738841907e-05
-3.169076066224221e-05
-2.8935042343786426e-05
-1.5156450751507488e-05
-9.64501411459592e-06
-6.889295796140132e-06
-1.5156450751507488e-05
-1.5156450751507488e-05
-1.240073243305171e-05
-1.5156450751507488e-05
-1.5156450751507488e-05
-1.240073243305171e-05
-9.64501411459592e-06
-4.133577477684346e-06
-9.64501411459592e-06
-3.169076066224221e-05
-3.720219729915378e-05
-2.8935042343786426e-05
-2.342360570687485e-05
-2.6179324025330647e-05
-1.7912169069963278e-05
-9.64501411459592e-06
-1.7912169069963278e-05
-1.7912169069963278e-05
-1.7912169069963278e-05
-2.066788738841907e-05
-2.8935042343786426e-05
-3.995791561760957e-05
-3.169076066224221e-05
-1.240073243305171e-05
1.3778591592272275e-06
1.3778591592272275e-06
1.3778591592272275e-06
-4.133577477684346e-06
-1.240073243305171e-05
-1.240073243305171e-05
-1.5156450751507488e-05
-1.240073243305171e-05
-1.377859159228559e-06
6.8892957961388014e-06
1.3778591592272275e-06
-1.240073243305171e-05
-6.889295796140132e-06
1.3778591592272275e-06
6.8892957961388014e-06
1.5156450751506162e-05
9.64501411459459e-06
6.8892957961388014e-06
6.8892957961388014e-06
-6.889295796140132e-06
-6.889295796140132e-06
-1.5156450751507488e-05
-4.133577477684346e-06
6.8892957961388014e-06
9.64501411459459e-06
9.64501411459459e-06
6.8892957961388014e-06
1.2400732433050376e-05
9.64501411459459e-06
9.64501411459459e-06
2.066788738841773e-05
1.7912169069961946e-05
2.3423605706873515e-05
1.7912169069961946e-05
2.3423605706873515e-05
3.444647898069667e-05
2.3423605706873515e-05
2.066788738841773e-05
2.6179324025329308e-05
1.7912169069961946e-05
2.3423605706873515e-05
2.3423605706873515e-05
3.169076066224089e-05
2.066788738841773e-05
6.8892957961388014e-06
-4.133577477684346e-06
4.133577477683014e-06
4.133577477683014e-06
1.3778591592272275e-06
-1.377859159228559e-06
6.8892957961388014e-06
-4.133577477684346e-06
-4.133577477684346e-06
4.133577477683014e-06
1.3778591592272275e-06
-1.377859159228559e-06
-4.133577477684346e-06
-6.889295796140132e-06
-6.889295796140132e-06
9.64501411459459e-06
3.169076066224089e-05
5.373650720988717e-05
9.782800030517979e-05
0.00018049954985885336
0.00037891126878767
0.0007261317769130989
0.0011229552147707324
0.0013709698634317533
0.0013682141451132974
0.0011505123979552907
0.0007564446784161128
0.00031001831082627527
3.444647898069667e-05
-7.57822537575348e-05
-9.231656366826955e-05
-9.507228198672531e-05
-8.404940871290214e-05
-5.6492225528344285e-05
-4.8225070572976926e-05
-6.200366216525588e-05
-6.475938048371164e-05
-5.6492225528344285e-05
-5.6492225528344285e-05
-6.475938048371164e-05
-5.6492225528344285e-05
-4.8225070572976926e-05
-3.720219729915378e-05
-4.5469352254521147e-05
-5.6492225528344285e-05
-6.200366216525588e-05
-6.475938048371164e-05
-6.475938048371164e-05
-5.6492225528344285e-05
-4.8225070572976926e-05
-5.3736507209888505e-05
-5.3736507209888505e-05
-4.8225070572976926e-05
-3.720219729915378e-05
-3.720219729915378e-05
-4.2713633936065354e-05
-3.4446478980697995e-05
-3.4446478980697995e-05
-3.4446478980697995e-05
-5.9247943846800084e-05
-5.3736507209888505e-05
-3.169076066224221e-05
-1.5156450751507488e-05
-1.240073243305171e-05
-9.64501411459592e-06
-1.5156450751507488e-05
-6.889295796140132e-06
-6.889295796140132e-06
-9.64501411459592e-06
-1.377859159228559e-06
1.3778591592272275e-06
1.7912169069961946e-05
2.8935042343785094e-05
3.9957915617608246e-05
4.82250705729756e-05
5.373650720988717e-05
6.200366216525454e-05
6.751509880216611e-05
8.404940871290084e-05
7.853797207598924e-05
7.853797207598924e-05
8.68051270313566e-05
8.956084534981241e-05
8.404940871290084e-05
5.373650720988717e-05
5.098078889143139e-05
6.751509880216611e-05
6.200366216525454e-05
6.200366216525454e-05
6.200366216525454e-05
5.373650720988717e-05
5.098078889143139e-05
3.9957915617608246e-05
3.169076066224089e-05
3.720219729915245e-05
2.066788738841773e-05
1.5156450751506162e-05
6.8892957961388014e-06
-4.133577477684346e-06
-1.5156450751507488e-05
-2.066788738841907e-05
-2.342360570687485e-05
-2.342360570687485e-05
-2.066788738841907e-05
-1.7912169069963278e-05
-9.64501411459592e-06
-2.342360570687485e-05
-3.720219729915378e-05
-2.342360570687485e-05
-6.889295796140132e-06
-1.5156450751507488e-05
-3.4446478980697995e-05
-3.169076066224221e-05
-2.8935042343786426e-05
-1.5156450751507488e-05
-6.889295796140132e-06
-6.889295796140132e-06
-1.5156450751507488e-05
-2.066788738841907e-05
-1.5156450751507488e-05
-2.342360570687485e-05
-2.8935042343786426e-05
-2.8935042343786426e-05
-3.169076066224221e-05
-1.7912169069963278e-05
-1.240073243305171e-05
-1.7912169069963278e-05
-2.8935042343786426e-05
-2.6179324025330647e-05
-3.169076066224221e-05
-2.8935042343786426e-05
-2.8935042343786426e-05
-2.6179324025330647e-05
-9.64501411459592e-06
-1.5156450751507488e-05
-3.4446478980697995e-05
-3.995791561760957e-05
-2.6179324025330647e-05
-6.889295796140132e-06
-1.377859159228559e-06
-1.377859159228559e-06
-1.377859159228559e-06
9.64501411459459e-06
9.64501411459459e-06
-4.133577477684346e-06
-1.377859159228559e-06
-6.889295796140132e-06
-1.5156450751507488e-05
-1.240073243305171e-05
-4.133577477684346e-06
-1.377859159228559e-06
-4.133577477684346e-06
-6.889295796140132e-06
-9.64501411459592e-06
-9.64501411459592e-06
-4.133577477684346e-06
1.3778591592272275e-06
-6.889295796140132e-06
-4.133577477684346e-06
-4.133577477684346e-06
4.133577477683014e-06
-1.377859159228559e-06
-1.5156450751507488e-05
-2.8935042343786426e-05
-9.64501411459592e-06
1.3778591592272275e-06
-4.133577477684346e-06
-1.240073243305171e-05
-6.889295796140132e-06
4.133577477683014e-06
4.133577477683014e-06
6.8892957961388014e-06
1.5156450751506162e-05
1.5156450751506162e-05
2.3423605706873515e-05
2.066788738841773e-05
2.066788738841773e-05
2.3423605706873515e-05
2.3423605706873515e-05
2.3423605706873515e-05
2.066788738841773e-05
1.7912169069961946e-05
6.8892957961388014e-06
-9.64501411459592e-06
-9.64501411459592e-06
-1.240073243305171e-05
-6.889295796140132e-06
-2.066788738841907e-05
-3.995791561760957e-05
-3.169076066224221e-05
-2.342360570687485e-05
-9.64501411459592e-06
-9.64501411459592e-06
-2.8935042343786426e-05
-2.6179324025330647e-05
-2.342360570687485e-05
-2.342360570687485e-05
-2.342360570687485e-05
-1.240073243305171e-05
1.2400732433050376e-05
4.546935225451981e-05
6.200366216525454e-05
9.507228198672396e-05
0.00020805673304341124
0.000469849973296711
0.0008666734111543443
0.0012028710460059502
0.001324122652018005
0.0012001153276874944
0.000896986312657358
0.0004726056916151668
0.00011987374685282605
-5.098078889143272e-05
-9.78280003051811e-05
-0.00010609515526054846
-0.00010058371862363688
-8.956084534981374e-05
-8.129369039444639e-05
-7.85379720759906e-05
-7.302653543907902e-05
-8.129369039444639e-05
-7.57822537575348e-05
-7.027081712062322e-05
-6.475938048371164e-05
-6.751509880216745e-05
-6.200366216525588e-05
-5.6492225528344285e-05
-5.3736507209888505e-05
-5.9247943846800084e-05
-6.751509880216745e-05
-7.027081712062322e-05
-6.475938048371164e-05
-5.9247943846800084e-05
-5.9247943846800084e-05
-5.3736507209888505e-05
-4.5469352254521147e-05
-3.995791561760957e-05
-4.5469352254521147e-05
-5.3736507209888505e-05
-5.6492225528344285e-05
-4.8225070572976926e-05
-4.8225070572976926e-05
-4.2713633936065354e-05
-4.5469352254521147e-05
-3.720219729915378e-05
-2.342360570687485e-05
-1.7912169069963278e-05
-2.066788738841907e-05
-1.5156450751507488e-05
-1.240073243305171e-05
-1.5156450751507488e-05
-4.133577477684346e-06
6.8892957961388014e-06
1.7912169069961946e-05
1.7912169069961946e-05
1.7912169069961946e-05
2.066788738841773e-05
4.271363393606403e-05
5.9247943846798756e-05
5.9247943846798756e-05
6.751509880216611e-05
7.853797207598924e-05
8.956084534981241e-05
7.853797207598924e-05
7.578225375753347e-05
7.853797207598924e-05
7.578225375753347e-05
6.751509880216611e-05
5.649222552834297e-05
5.098078889143139e-05
5.373650720988717e-05
5.373650720988717e-05
4.82250705729756e-05
4.82250705729756e-05
4.82250705729756e-05
3.169076066224089e-05
2.8935042343785094e-05
3.169076066224089e-05
2.3423605706873515e-05
6.8892957961388014e-06
-9.64501411459592e-06
-4.133577477684346e-06
-6.889295796140132e-06
-2.066788738841907e-05
-2.6179324025330647e-05
-1.7912169069963278e-05
-1.5156450751507488e-05
-1.7912169069963278e-05
-2.342360570687485e-05
-2.066788738841907e-05
-2.342360570687485e-05
-3.995791561760957e-05
-3.720219729915378e-05
-1.240073243305171e-05
-1.7912169069963278e-05
-1.7912169069963278e-05
-2.066788738841907e-05
-2.8935042343786426e-05
-2.6179324025330647e-05
-2.342360570687485e-05
-3.720219729915378e-05
-3.720219729915378e-05
-2.8935042343786426e-05
-2.342360570687485e-05
-3.169076066224221e-05
-2.6179324025330647e-05
-2.6179324025330647e-05
-2.066788738841907e-05
-2.066788738841907e-05
-2.342360570687485e-05
-2.6179324025330647e-05
-3.4446478980697995e-05
-3.720219729915378e-05
-3.4446478980697995e-05
-4.2713633936065354e-05
-2.8935042343786426e-05
-1.240073243305171e-05
-6.889295796140132e-06
-9.64501411459592e-06
-9.64501411459592e-06
1.3778591592272275e-06
9.64501411459459e-06
6.8892957961388014e-06
4.133577477683014e-06
1.3778591592272275e-06
-9.64501411459592e-06
-1.377859159228559e-06
4.133577477683014e-06
-1.377859159228559e-06
-6.889295796140132e-06
-6.889295796140132e-06
-9.64501411459592e-06
-1.377859159228559e-06
-6.889295796140132e-06
-1.7912169069963278e-05
-3.995791561760957e-05
-2.6179324025330647e-05
-1.377859159228559e-06
-1.377859159228559e-06
-1.377859159228559e-06
-6.889295796140132e-06
-1.377859159228559e-06
1.2400732433050376e-05
9.64501411459459e-06
6.8892957961388014e-06
1.3778591592272275e-06
-1.377859159228559e-06
-1.377859159228559e-06
-4.133577477684346e-06
1.3778591592272275e-06
9.64501411459459e-06
6.8892957961388014e-06
2.066788738841773e-05
2.6179324025329308e-05
6.8892957961388014e-06
-6.889295796140132e-06
6.8892957961388014e-06
1.2400732433050376e-05
2.066788738841773e-05
1.5156450751506162e-05
1.5156450751506162e-05
1.5156450751506162e-05
1.2400732433050376e-05
1.7912169069961946e-05
2.066788738841773e-05
6.8892957961388014e-06
-6.889295796140132e-06
-1.240073243305171e-05
-9.64501411459592e-06
-1.377859159228559e-06
-6.889295796140132e-06
-1.240073243305171e-05
-1.240073243305171e-05
-2.6179324025330647e-05
-3.169076066224221e-05
-9.64501411459592e-06
-1.377859159228559e-06
-1.5156450751507488e-05
-1.7912169069963278e-05
-2.6179324025330647e-05
-6.889295796140132e-06
4.271363393606403e-05
6.751509880216611e-05
0.00010058371862363556
0.00018876670481422076
0.00042024704356450677
0.0007757347066453035
0.0010871308766308072
0.0011946038910505827
0.0010816194399938957
0.0007922690165560381
0.0004009570153353164
8.68051270313566e-05
-5.098078889143272e-05
-9.78280003051811e-05
-0.00010333943694209268
-0.00010058371862363688
-9.78280003051811e-05
-9.231656366826955e-05
-8.404940871290214e-05
-7.027081712062322e-05
-7.57822537575348e-05
-7.85379720759906e-05
-8.129369039444639e-05
-7.85379720759906e-05
-7.57822537575348e-05
-7.85379720759906e-05
-7.027081712062322e-05
-6.200366216525588e-05
-5.9247943846800084e-05
-5.098078889143272e-05
-4.5469352254521147e-05
-4.5469352254521147e-05
-5.098078889143272e-05
-5.9247943846800084e-05
-5.9247943846800084e-05
-5.098078889143272e-05
-5.3736507209888505e-05
-5.6492225528344285e-05
-4.2713633936065354e-05
-3.4446478980697995e-05
-3.720219729915378e-05
-4.2713633936065354e-05
-3.720219729915378e-05
-3.4446478980697995e-05
-2.8935042343786426e-05
-2.066788738841907e-05
-4.2713633936065354e-05
-4.2713633936065354e-05
-2.066788738841907e-05
-2.066788738841907e-05
-1.5156450751507488e-05
-4.133577477684346e-06
-1.7912169069963278e-05
-1.240073243305171e-05
1.7912169069961946e-05
2.6179324025329308e-05
3.444647898069667e-05
3.720219729915245e-05
4.271363393606403e-05
6.200366216525454e-05
6.475938048371032e-05
6.200366216525454e-05
6.751509880216611e-05
7.30265354390777e-05
6.751509880216611e-05
7.02708171206219e-05
5.649222552834297e-05
4.546935225451981e-05
4.271363393606403e-05
4.546935225451981e-05
3.720219729915245e-05
3.169076066224089e-05
1.5156450751506162e-05
1.2400732433050376e-05
1.5156450751506162e-05
6.8892957961388014e-06
1.3778591592272275e-06
-6.889295796140132e-06
-3.4446478980697995e-05
-3.4446478980697995e-05
-2.342360570687485e-05
-1.7912169069963278e-05
-1.7912169069963278e-05
-2.342360570687485e-05
-2.342360570687485e-05
-2.8935042343786426e-05
-4.5469352254521147e-05
-4.2713633936065354e-05
-3.995791561760957e-05
-3.720219729915378e-05
-3.720219729915378e-05
-3.995791561760957e-05
-4.5469352254521147e-05
-4.2713633936065354e-05
-3.720219729915378e-05
-4.2713633936065354e-05
-4.5469352254521147e-05
-6.200366216525588e-05
-5.3736507209888505e-05
-4.8225070572976926e-05
-4.5469352254521147e-05
-4.8225070572976926e-05
-5.6492225528344285e-05
-6.200366216525588e-05
-6.200366216525588e-05
-6.200366216525588e-05
-5.6492225528344285e-05
-6.475938048371164e-05
-5.9247943846800084e-05
-3.720219729915378e-05
-2.066788738841907e-05
-2.342360570687485e-05
-3.720219729915378e-05
-2.8935042343786426e-05
-9.64501411459592e-06
-4.133577477684346e-06
-1.5156450751507488e-05
-1.240073243305171e-05
-9.64501411459592e-06
-1.5156450751507488e-05
-4.133577477684346e-06
-1.377859159228559e-06
6.8892957961388014e-06
-1.240073243305171e-05
-2.066788738841907e-05
-9.64501411459592e-06
-9.64501411459592e-06
-2.066788738841907e-05
-9.64501411459592e-06
1.3778591592272275e-06
1.3778591592272275e-06
1.3778591592272275e-06
-1.240073243305171e-05
-2.066788738841907e-05
-2.8935042343786426e-05
-2.342360570687485e-05
-1.7912169069963278e-05
-1.240073243305171e-05
-6.889295796140132e-06
-1.240073243305171e-05
-1.7912169069963278e-05
-1.5156450751507488e-05
-9.64501411459592e-06
-1.240073243305171e-05
-1.240073243305171e-05
-1.240073243305171e-05
-1.5156450751507488e-05
-1.5156450751507488e-05
-6.889295796140132e-06
1.3778591592272275e-06
-1.377859159228559e-06
-1.377859159228559e-06
1.3778591592272275e-06
4.133577477683014e-06
9.64501411459459e-06
1.2400732433050376e-05
1.2400732433050376e-05
1.2400732433050376e-05
1.3778591592272275e-06
-1.240073243305171e-05
-4.133577477684346e-06
-1.5156450751507488e-05
-2.342360570687485e-05
-3.169076066224221e-05
-5.098078889143272e-05
-5.3736507209888505e-05
-3.720219729915378e-05
-2.6179324025330647e-05
-2.8935042343786426e-05
-3.995791561760957e-05
-3.4446478980697995e-05
-3.169076066224221e-05
-3.169076066224221e-05
-3.169076066224221e-05
-4.2713633936065354e-05
-4.2713633936065354e-05
-4.2713633936065354e-05
-3.4446478980697995e-05
1.3778591592272275e-06
2.6179324025329308e-05
5.373650720988717e-05
0.00014743093003738393
0.0003596212405584795
0.000701330312046997
0.0010320165102616916
0.0012111382009613175
0.0011477566796368347
0.0008832077210650791
0.0004863842832074457
0.00011711802853437029
-7.57822537575348e-05
-0.00015294236667429682
-0.00014743093003738526
-0.0001391637750820179
-0.00013089662012665053
-0.0001198737468528274
-0.00010333943694209268
-0.00010333943694209268
-0.00010885087357900426
-0.00010885087357900426
-0.00010333943694209268
-0.00010885087357900426
-0.00010885087357900426
-0.00011436231021591582
-0.00010058371862363688
-8.956084534981374e-05
-8.680512703135793e-05
-8.956084534981374e-05
-9.231656366826955e-05
-8.404940871290214e-05
-7.85379720759906e-05
-7.302653543907902e-05
-7.302653543907902e-05
-7.57822537575348e-05
-7.85379720759906e-05
-7.57822537575348e-05
-7.027081712062322e-05
-6.751509880216745e-05
-7.027081712062322e-05
-6.475938048371164e-05
-6.475938048371164e-05
-6.200366216525588e-05
-5.9247943846800084e-05
-5.3736507209888505e-05
-5.098078889143272e-05
-4.5469352254521147e-05
-3.4446478980697995e-05
-2.6179324025330647e-05
-2.342360570687485e-05
-4.5469352254521147e-05
-5.6492225528344285e-05
-2.8935042343786426e-05
-2.066788738841907e-05
-9.64501411459592e-06
6.8892957961388014e-06
1.7912169069961946e-05
2.3423605706873515e-05
3.169076066224089e-05
4.271363393606403e-05
4.271363393606403e-05
3.720219729915245e-05
3.720219729915245e-05
3.9957915617608246e-05
4.271363393606403e-05
3.720219729915245e-05
3.169076066224089e-05
2.066788738841773e-05
6.8892957961388014e-06
1.5156450751506162e-05
1.7912169069961946e-05
1.5156450751506162e-05
9.64501411459459e-06
1.3778591592272275e-06
-1.240073243305171e-05
-3.169076066224221e-05
-3.4446478980697995e-05
-3.4446478980697995e-05
-3.995791561760957e-05
-4.8225070572976926e-05
-5.3736507209888505e-05
-5.6492225528344285e-05
-5.3736507209888505e-05
-4.5469352254521147e-05
-5.6492225528344285e-05
-6.475938048371164e-05
-5.9247943846800084e-05
-5.9247943846800084e-05
-5.9247943846800084e-05
-5.9247943846800084e-05
-7.027081712062322e-05
-7.302653543907902e-05
-6.751509880216745e-05
-7.302653543907902e-05
-8.129369039444639e-05
-7.57822537575348e-05
-7.027081712062322e-05
-8.129369039444639e-05
-8.680512703135793e-05
-7.85379720759906e-05
-9.231656366826955e-05
-8.680512703135793e-05
-7.027081712062322e-05
-6.751509880216745e-05
-6.751509880216745e-05
-5.9247943846800084e-05
-6.475938048371164e-05
-6.475938048371164e-05
-6.200366216525588e-05
-5.9247943846800084e-05
-5.3736507209888505e-05
-5.3736507209888505e-05
-5.9247943846800084e-05
-5.098078889143272e-05
-3.995791561760957e-05
-3.4446478980697995e-05
-3.995791561760957e-05
-4.8225070572976926e-05
-4.5469352254521147e-05
-3.995791561760957e-05
-5.098078889143272e-05
-3.720219729915378e-05
-2.8935042343786426e-05
-2.6179324025330647e-05
-1.240073243305171e-05
-3.169076066224221e-05
-2.066788738841907e-05
-1.240073243305171e-05
-1.7912169069963278e-05
-2.6179324025330647e-05
-1.240073243305171e-05
-9.64501411459592e-06
-9.64501411459592e-06
-1.7912169069963278e-05
-2.066788738841907e-05
-1.5156450751507488e-05
-2.066788738841907e-05
-2.066788738841907e-05
-1.5156450751507488e-05
-1.5156450751507488e-05
-1.240073243305171e-05
-9.64501411459592e-06
-9.64501411459592e-06
-2.6179324025330647e-05
-2.066788738841907e-05
-6.889295796140132e-06
-9.64501411459592e-06
-2.8935042343786426e-05
-1.377859159228559e-06
4.133577477683014e-06
4.133577477683014e-06
1.2400732433050376e-05
9.64501411459459e-06
1.3778591592272275e-06
1.3778591592272275e-06
1.3778591592272275e-06
-1.240073243305171e-05
-2.6179324025330647e-05
-2.6179324025330647e-05
-2.342360570687485e-05
-2.6179324025330647e-05
-3.169076066224221e-05
-3.169076066224221e-05
-3.995791561760957e-05
-3.720219729915378e-05
-2.8935042343786426e-05
-2.8935042343786426e-05
-4.2713633936065354e-05
-5.6492225528344285e-05
-5.098078889143272e-05
-3.995791561760957e-05
-5.098078889143272e-05
-3.169076066224221e-05
4.133577477683014e-06
3.444647898069667e-05
7.853797207598924e-05
0.0001832552681773092
0.0003982012970168605
0.0007702232700083917
0.0011394895246814672
0.0013406569619287395
0.001293809750514991
0.0010265050736247801
0.0005911015793087656
0.00016672095826657444
-5.9247943846800084e-05
-0.00013089662012665053
-0.0001336523384451063
-0.0001336523384451063
-0.0001171180285343716
-0.00010058371862363688
-8.956084534981374e-05
-7.85379720759906e-05
-8.404940871290214e-05
-8.956084534981374e-05
-8.680512703135793e-05
-7.57822537575348e-05
-7.302653543907902e-05
-8.404940871290214e-05
-8.680512703135793e-05
-9.507228198672531e-05
-0.00010885087357900426
-0.00010333943694209268
-8.404940871290214e-05
-7.027081712062322e-05
-6.200366216525588e-05
-6.200366216525588e-05
-6.751509880216745e-05
-6.200366216525588e-05
-6.200366216525588e-05
-5.6492225528344285e-05
-6.475938048371164e-05
-7.027081712062322e-05
-6.200366216525588e-05
-5.9247943846800084e-05
-4.5469352254521147e-05
-3.995791561760957e-05
-4.5469352254521147e-05
-4.2713633936065354e-05
-3.720219729915378e-05
-4.5469352254521147e-05
-3.995791561760957e-05
-2.8935042343786426e-05
-1.5156450751507488e-05
-1.240073243305171e-05
-9.64501411459592e-06
-1.377859159228559e-06
1.3778591592272275e-06
1.3778591592272275e-06
-9.64501411459592e-06
-1.377859159228559e-06
3.444647898069667e-05
5.373650720988717e-05
6.200366216525454e-05
6.200366216525454e-05
7.30265354390777e-05
8.404940871290084e-05
7.853797207598924e-05
7.30265354390777e-05
7.02708171206219e-05
7.30265354390777e-05
7.853797207598924e-05
7.02708171206219e-05
5.9247943846798756e-05
5.098078889143139e-05
3.720219729915245e-05
2.8935042343785094e-05
3.720219729915245e-05
1.7912169069961946e-05
4.133577477683014e-06
4.133577477683014e-06
6.8892957961388014e-06
-4.133577477684346e-06
-2.342360570687485e-05
-4.5469352254521147e-05
-5.9247943846800084e-05
-3.4446478980697995e-05
-2.066788738841907e-05
-2.066788738841907e-05
-3.4446478980697995e-05
-3.720219729915378e-05
-4.2713633936065354e-05
-3.995791561760957e-05
-3.720219729915378e-05
-3.995791561760957e-05
-3.995791561760957e-05
-4.2713633936065354e-05
-4.2713633936065354e-05
-3.720219729915378e-05
-3.720219729915378e-05
-2.8935042343786426e-05
-3.4446478980697995e-05
-3.169076066224221e-05
-2.342360570687485e-05
-2.6179324025330647e-05
-3.720219729915378e-05
-4.2713633936065354e-05
-2.8935042343786426e-05
-2.342360570687485e-05
-4.5469352254521147e-05
-5.6492225528344285e-05
-6.475938048371164e-05
-6.200366216525588e-05
-4.5469352254521147e-05
-3.4446478980697995e-05
-2.8935042343786426e-05
-3.169076066224221e-05
-2.8935042343786426e-05
-3.720219729915378e-05
-4.2713633936065354e-05
-3.720219729915378e-05
-4.2713633936065354e-05
-4.2713633936065354e-05
-3.720219729915378e-05
-3.995791561760957e-05
-3.720219729915378e-05
-3.169076066224221e-05
-2.6179324025330647e-05
-3.169076066224221e-05
-3.4446478980697995e-05
-2.8935042343786426e-05
-2.066788738841907e-05
-2.066788738841907e-05
-3.720219729915378e-05
-2.8935042343786426e-05
-1.240073243305171e-05
-2.066788738841907e-05
-1.7912169069963278e-05
6.8892957961388014e-06
-9.64501411459592e-06
-4.2713633936065354e-05
-3.4446478980697995e-05
-1.5156450751507488e-05
-1.240073243305171e-05
-6.889295796140132e-06
-4.133577477684346e-06
-9.64501411459592e-06
-1.240073243305171e-05
-4.133577477684346e-06
-4.133577477684346e-06
-6.889295796140132e-06
-4.133577477684346e-06
1.3778591592272275e-06
1.3778591592272275e-06
9.64501411459459e-06
9.64501411459459e-06
4.133577477683014e-06
-1.377859159228559e-06
1.3778591592272275e-06
9.64501411459459e-06
9.64501411459459e-06
4.133577477683014e-06
-4.133577477684346e-06
6.8892957961388014e-06
9.64501411459459e-06
6.8892957961388014e-06
-6.889295796140132e-06
-1.5156450751507488e-05
-2.342360570687485e-05
-2.066788738841907e-05
-3.995791561760957e-05
-3.995791561760957e-05
-1.7912169069963278e-05
-2.066788738841907e-05
-3.169076066224221e-05
-2.8935042343786426e-05
-2.8935042343786426e-05
-2.8935042343786426e-05
-2.342360570687485e-05
-1.5156450751507488e-05
-2.342360570687485e-05
-6.889295796140132e-06
2.3423605706873515e-05
5.649222552834297e-05
0.00013089662012664922
0.00031001831082627527
0.0006269259174486908
0.0010127264820325008
0.0013130997787441814
0.0013875041733424878
0.0011946038910505827
0.0008363605096513305
0.00037064411383230263
4.546935225451981e-05
-8.680512703135793e-05
-0.00011436231021591582
-0.0001336523384451063
-0.00013089662012665053
-9.78280003051811e-05
-8.129369039444639e-05
-7.85379720759906e-05
-7.85379720759906e-05
-7.302653543907902e-05
-8.956084534981374e-05
-0.00010885087357900426
-9.507228198672531e-05
-8.956084534981374e-05
-8.956084534981374e-05
-9.231656366826955e-05
-8.129369039444639e-05
-8.129369039444639e-05
-8.680512703135793e-05
-7.85379720759906e-05
-7.57822537575348e-05
-7.57822537575348e-05
-8.129369039444639e-05
-7.85379720759906e-05
-8.680512703135793e-05
-8.680512703135793e-05
-7.027081712062322e-05
-6.751509880216745e-05
-7.027081712062322e-05
-7.57822537575348e-05
-7.85379720759906e-05
-7.027081712062322e-05
-6.475938048371164e-05
-7.302653543907902e-05
-8.404940871290214e-05
-6.751509880216745e-05
-5.098078889143272e-05
-3.169076066224221e-05
-2.6179324025330647e-05
-3.720219729915378e-05
-4.5469352254521147e-05
-3.4446478980697995e-05
-2.8935042343786426e-05
-2.066788738841907e-05
-2.342360570687485e-05
-1.5156450751507488e-05
1.2400732433050376e-05
2.3423605706873515e-05
3.720219729915245e-05
4.546935225451981e-05
3.9957915617608246e-05
4.271363393606403e-05
5.649222552834297e-05
5.9247943846798756e-05
5.098078889143139e-05
4.82250705729756e-05
5.373650720988717e-05
4.82250705729756e-05
3.720219729915245e-05
2.6179324025329308e-05
6.8892957961388014e-06
-1.377859159228559e-06
2.066788738841773e-05
2.3423605706873515e-05
1.5156450751506162e-05
1.3778591592272275e-06
-9.64501411459592e-06
-2.342360570687485e-05
-3.169076066224221e-05
-2.8935042343786426e-05
-3.169076066224221e-05
-3.995791561760957e-05
-3.4446478980697995e-05
-3.995791561760957e-05
-3.995791561760957e-05
-4.8225070572976926e-05
-5.6492225528344285e-05
-5.9247943846800084e-05
-5.9247943846800084e-05
-7.027081712062322e-05
-5.6492225528344285e-05
-3.995791561760957e-05
-4.8225070572976926e-05
-5.3736507209888505e-05
-5.6492225528344285e-05
-5.3736507209888505e-05
-5.098078889143272e-05
-4.8225070572976926e-05
-5.098078889143272e-05
-5.9247943846800084e-05
-4.2713633936065354e-05
-4.5469352254521147e-05
-5.3736507209888505e-05
-4.5469352254521147e-05
-5.6492225528344285e-05
-6.475938048371164e-05
-6.200366216525588e-05
-6.751509880216745e-05
-6.475938048371164e-05
-5.9247943846800084e-05
-6.475938048371164e-05
-5.9247943846800084e-05
-6.475938048371164e-05
-5.9247943846800084e-05
-4.8225070572976926e-05
-5.6492225528344285e-05
-6.475938048371164e-05
-6.200366216525588e-05
-6.200366216525588e-05
-5.9247943846800084e-05
-5.098078889143272e-05
-5.9247943846800084e-05
-3.4446478980697995e-05
-3.4446478980697995e-05
-4.2713633936065354e-05
-5.9247943846800084e-05
-6.475938048371164e-05
-5.3736507209888505e-05
-3.995791561760957e-05
-2.6179324025330647e-05
-3.995791561760957e-05
-4.8225070572976926e-05
-4.2713633936065354e-05
-3.169076066224221e-05
-1.7912169069963278e-05
-1.5156450751507488e-05
-2.342360570687485e-05
-2.066788738841907e-05
-1.5156450751507488e-05
-1.240073243305171e-05
-2.066788738841907e-05
-2.8935042343786426e-05
-3.4446478980697995e-05
-2.342360570687485e-05
-2.066788738841907e-05
-2.6179324025330647e-05
-2.8935042343786426e-05
-2.342360570687485e-05
-9.64501411459592e-06
-1.377859159228559e-06
-4.133577477684346e-06
-3.4446478980697995e-05
-3.169076066224221e-05
1.3778591592272275e-06
6.8892957961388014e-06
-4.133577477684346e-06
-4.133577477684346e-06
1.3778591592272275e-06
4.133577477683014e-06
4.133577477683014e-06
1.3778591592272275e-06
-1.377859159228559e-06
1.3778591592272275e-06
4.133577477683014e-06
4.133577477683014e-06
-4.133577477684346e-06
-1.5156450751507488e-05
-1.7912169069963278e-05
-2.066788738841907e-05
-2.8935042343786426e-05
-3.169076066224221e-05
-2.6179324025330647e-05
-3.169076066224221e-05
-3.995791561760957e-05
-3.169076066224221e-05
-2.342360570687485e-05
-4.2713633936065354e-05
-6.475938048371164e-05
-5.098078889143272e-05
-3.4446478980697995e-05
-2.066788738841907e-05
-9.64501411459592e-06
9.64501411459459e-06
2.6179324025329308e-05
8.404940871290084e-05
0.0002135681696803228
0.0004863842832074457
0.0012083824826428621
0.0013544355535210185
0.0012331839475089635
0.0009328106507972832
0.0004863842832074457
0.00012262946517128183
-5.098078889143272e-05
-0.00010885087357900426
-0.00011160659189746003
-0.00010885087357900426
-0.00010058371862363688
-8.129369039444639e-05
-8.680512703135793e-05
-0.00010885087357900426
-0.00011160659189746003
-9.507228198672531e-05
-9.78280003051811e-05
-9.507228198672531e-05
-8.956084534981374e-05
-8.680512703135793e-05
-8.680512703135793e-05
-9.231656366826955e-05
-8.956084534981374e-05
-8.129369039444639e-05
-6.751509880216745e-05
-7.027081712062322e-05
-8.680512703135793e-05
-8.680512703135793e-05
-7.85379720759906e-05
-8.129369039444639e-05
-8.129369039444639e-05
-7.85379720759906e-05
-8.129369039444639e-05
-9.231656366826955e-05
-8.956084534981374e-05
-8.129369039444639e-05
-8.129369039444639e-05
-8.129369039444639e-05
-7.302653543907902e-05
-6.751509880216745e-05
-6.751509880216745e-05
-6.200366216525588e-05
-5.098078889143272e-05
-6.200366216525588e-05
-8.129369039444639e-05
-7.027081712062322e-05
-5.9247943846800084e-05
-5.098078889143272e-05
-3.720219729915378e-05
-3.4446478980697995e-05
-2.342360570687485e-05
-9.64501411459592e-06
-6.889295796140132e-06
-1.377859159228559e-06
9.64501411459459e-06
1.5156450751506162e-05
2.3423605706873515e-05
2.3423605706873515e-05
3.444647898069667e-05
3.9957915617608246e-05
2.8935042343785094e-05
2.6179324025329308e-05
2.8935042343785094e-05
3.169076066224089e-05
3.444647898069667e-05
3.444647898069667e-05
6.8892957961388014e-06
4.133577477683014e-06
-1.240073243305171e-05
-1.5156450751507488e-05
-1.5156450751507488e-05
-3.169076066224221e-05
-4.2713633936065354e-05
-5.6492225528344285e-05
-4.5469352254521147e-05
-3.4446478980697995e-05
-4.2713633936065354e-05
-5.6492225528344285e-05
-5.6492225528344285e-05
-5.6492225528344285e-05
-6.475938048371164e-05
-7.302653543907902e-05
-7.57822537575348e-05
-6.751509880216745e-05
-6.475938048371164e-05
-7.027081712062322e-05
-6.200366216525588e-05
-5.3736507209888505e-05
-5.9247943846800084e-05
-5.6492225528344285e-05
-5.6492225528344285e-05
-5.6492225528344285e-05
-5.9247943846800084e-05
-6.200366216525588e-05
-6.475938048371164e-05
-6.200366216525588e-05
-6.751509880216745e-05
-7.027081712062322e-05
-6.200366216525588e-05
-6.475938048371164e-05
-8.129369039444639e-05
-8.129369039444639e-05
-7.302653543907902e-05
-6.200366216525588e-05
-6.475938048371164e-05
-6.751509880216745e-05
-7.302653543907902e-05
-7.85379720759906e-05
-7.027081712062322e-05
-6.200366216525588e-05
-6.200366216525588e-05
-6.200366216525588e-05
-6.200366216525588e-05
-6.200366216525588e-05
-5.9247943846800084e-05
-5.6492225528344285e-05
-6.200366216525588e-05
-5.3736507209888505e-05
-5.098078889143272e-05
-5.9247943846800084e-05
-6.475938048371164e-05
-4.2713633936065354e-05
-4.2713633936065354e-05
-5.9247943846800084e-05
-5.3736507209888505e-05
-5.098078889143272e-05
-4.5469352254521147e-05
-4.8225070572976926e-05
-5.3736507209888505e-05
-5.6492225528344285e-05
-4.8225070572976926e-05
-4.5469352254521147e-05
-6.475938048371164e-05
-7.57822537575348e-05
-4.8225070572976926e-05
-3.720219729915378e-05
-2.6179324025330647e-05
-3.720219729915378e-05
-5.3736507209888505e-05
-4.2713633936065354e-05
-3.4446478980697995e-05
-2.6179324025330647e-05
-3.720219729915378e-05
-3.720219729915378e-05
-2.8935042343786426e-05
-2.6179324025330647e-05
-2.8935042343786426e-05
-3.169076066224221e-05
-3.169076066224221e-05
-2.066788738841907e-05
-9.64501411459592e-06
-1.240073243305171e-05
-1.240073243305171e-05
-9.64501411459592e-06
-9.64501411459592e-06
-1.377859159228559e-06
-4.133577477684346e-06
-1.240073243305171e-05
-2.066788738841907e-05
-2.342360570687485e-05
-3.995791561760957e-05
-3.995791561760957e-05
-2.342360570687485e-05
-2.8935042343786426e-05
-3.995791561760957e-05
-3.720219729915378e-05
-3.169076066224221e-05
-3.169076066224221e-05
-3.169076066224221e-05
-3.169076066224221e-05
-2.8935042343786426e-05
-3.169076066224221e-05
-4.8225070572976926e-05
-4.5469352254521147e-05
-4.8225070572976926e-05
-4.2713633936065354e-05
-3.169076066224221e-05
-4.133577477684346e-06
2.3423605706873515e-05
4.82250705729756e-05
8.129369039444505e-05
0.00019978957808804387
0.0004643385366597993
0.0008336047913328749
0.0011312223697260999
0.0012194053559166852
0.0010678408484016168
0.0007647118333714802
0.0003568655222400236
5.373650720988717e-05
-8.404940871290214e-05
-0.00012814090180819475
-0.00012538518348973897
-0.00011160659189746003
-0.00010885087357900426
-0.0001171180285343716
-9.78280003051811e-05
-9.231656366826955e-05
-9.78280003051811e-05
-9.78280003051811e-05
-8.404940871290214e-05
-7.57822537575348e-05
-8.404940871290214e-05
-8.956084534981374e-05
-8.680512703135793e-05
-8.680512703135793e-05
-8.129369039444639e-05
-8.404940871290214e-05
-8.129369039444639e-05
-7.57822537575348e-05
-7.57822537575348e-05
-8.404940871290214e-05
-8.404940871290214e-05
-8.404940871290214e-05
-7.85379720759906e-05
-7.57822537575348e-05
-7.57822537575348e-05
-6.200366216525588e-05
-6.751509880216745e-05
-7.85379720759906e-05
-7.302653543907902e-05
-6.200366216525588e-05
-7.027081712062322e-05
-7.302653543907902e-05
-5.9247943846800084e-05
-4.2713633936065354e-05
-3.169076066224221e-05
-4.2713633936065354e-05
-6.475938048371164e-05
-5.098078889143272e-05
-2.8935042343786426e-05
-1.7912169069963278e-05
-4.133577477684346e-06
1.2400732433050376e-05
6.8892957961388014e-06
6.8892957961388014e-06
2.066788738841773e-05
2.8935042343785094e-05
3.169076066224089e-05
3.444647898069667e-05
3.444647898069667e-05
3.444647898069667e-05
4.271363393606403e-05
4.82250705729756e-05
3.9957915617608246e-05
2.6179324025329308e-05
2.8935042343785094e-05
2.6179324025329308e-05
2.066788738841773e-05
1.2400732433050376e-05
1.3778591592272275e-06
-9.64501411459592e-06
-1.377859159228559e-06
-1.240073243305171e-05
-2.342360570687485e-05
-2.6179324025330647e-05
-2.6179324025330647e-05
-3.169076066224221e-05
-3.4446478980697995e-05
-4.5469352254521147e-05
-5.3736507209888505e-05
-5.098078889143272e-05
-5.9247943846800084e-05
-7.85379720759906e-05
-8.956084534981374e-05
-8.404940871290214e-05
-7.027081712062322e-05
-6.200366216525588e-05
-5.6492225528344285e-05
-5.9247943846800084e-05
-6.200366216525588e-05
-6.475938048371164e-05
-6.751509880216745e-05
-7.027081712062322e-05
-7.85379720759906e-05
-8.404940871290214e-05
-8.129369039444639e-05
-8.129369039444639e-05
-8.404940871290214e-05
-8.956084534981374e-05
-8.404940871290214e-05
-8.129369039444639e-05
-7.302653543907902e-05
-7.85379720759906e-05
-7.302653543907902e-05
-7.027081712062322e-05
-6.200366216525588e-05
-5.3736507209888505e-05
-5.3736507209888505e-05
-5.098078889143272e-05
-5.3736507209888505e-05
-5.3736507209888505e-05
-4.5469352254521147e-05
-3.995791561760957e-05
-4.8225070572976926e-05
-4.8225070572976926e-05
-4.8225070572976926e-05
-2.8935042343786426e-05
-3.995791561760957e-05
-5.3736507209888505e-05
-4.5469352254521147e-05
-3.169076066224221e-05
-2.6179324025330647e-05
-2.342360570687485e-05
-2.066788738841907e-05
-2.8935042343786426e-05
-3.4446478980697995e-05
-3.995791561760957e-05
-3.995791561760957e-05
-2.8935042343786426e-05
-2.6179324025330647e-05
-3.169076066224221e-05
-3.720219729915378e-05
-2.8935042343786426e-05
-2.6179324025330647e-05
-3.169076066224221e-05
-4.2713633936065354e-05
-4.2713633936065354e-05
-3.720219729915378e-05
-2.8935042343786426e-05
-3.720219729915378e-05
-3.720219729915378e-05
-2.6179324025330647e-05
-3.720219729915378e-05
-3.720219729915378e-05
-3.169076066224221e-05
-3.4446478980697995e-05
-2.8935042343786426e-05
-2.6179324025330647e-05
-2.6179324025330647e-05
-2.342360570687485e-05
-2.342360570687485e-05
-2.066788738841907e-05
-9.64501411459592e-06
-9.64501411459592e-06
-1.7912169069963278e-05
-3.720219729915378e-05
-3.720219729915378e-05
-2.066788738841907e-05
-2.8935042343786426e-05
-3.720219729915378e-05
-3.720219729915378e-05
-3.169076066224221e-05
-3.995791561760957e-05
-4.2713633936065354e-05
-4.8225070572976926e-05
-5.9247943846800084e-05
-5.9247943846800084e-05
-5.6492225528344285e-05
-4.8225070572976926e-05
-5.6492225528344285e-05
-5.9247943846800084e-05
-6.475938048371164e-05
-5.098078889143272e-05
-4.2713633936065354e-05
-2.8935042343786426e-05
-1.240073243305171e-05
9.64501411459459e-06
3.9957915617608246e-05
0.00010058371862363556
0.0002686825360494386
0.0005800787060349425
0.0009355663691157388
0.0011339780880445555
0.0010926423132677188
0.0008639176928358884
0.000508430029755092
0.0001253851834897376
-8.404940871290214e-05
-0.0001391637750820179
-0.00015294236667429682
-0.00016947667658503157
-0.00014467521171892948
-0.0001226294651712832
-0.00010609515526054846
-9.507228198672531e-05
-0.00010333943694209268
-0.00010885087357900426
-0.00010609515526054846
-0.00010885087357900426
-0.0001171180285343716
-0.00011160659189746003
-0.00010058371862363688
-0.00010333943694209268
-0.00011160659189746003
-0.00010609515526054846
-0.00010333943694209268
-0.00010885087357900426
-0.00010885087357900426
-9.507228198672531e-05
-8.680512703135793e-05
-8.956084534981374e-05
-9.507228198672531e-05
-8.129369039444639e-05
-7.57822537575348e-05
-7.302653543907902e-05
-7.302653543907902e-05
-7.302653543907902e-05
-7.57822537575348e-05
-7.85379720759906e-05
-6.751509880216745e-05
-5.9247943846800084e-05
-5.9247943846800084e-05
-6.751509880216745e-05
-7.027081712062322e-05
-6.751509880216745e-05
-6.475938048371164e-05
-4.5469352254521147e-05
-3.4446478980697995e-05
-2.6179324025330647e-05
-1.240073243305171e-05
-1.377859159228559e-06
-1.377859159228559e-06
-9.64501411459592e-06
6.8892957961388014e-06
1.7912169069961946e-05
4.133577477683014e-06
1.2400732433050376e-05
2.3423605706873515e-05
2.8935042343785094e-05
2.3423605706873515e-05
2.3423605706873515e-05
1.7912169069961946e-05
1.5156450751506162e-05
1.2400732433050376e-05
1.2400732433050376e-05
4.133577477683014e-06
-9.64501411459592e-06
-1.7912169069963278e-05
-2.342360570687485e-05
-1.7912169069963278e-05
-2.6179324025330647e-05
-3.995791561760957e-05
-5.6492225528344285e-05
-7.302653543907902e-05
-7.302653543907902e-05
-6.475938048371164e-05
-6.200366216525588e-05
-6.475938048371164e-05
-6.475938048371164e-05
-7.57822537575348e-05
-7.57822537575348e-05
-6.200366216525588e-05
-6.751509880216745e-05
-8.404940871290214e-05
-7.85379720759906e-05
-7.302653543907902e-05
-7.85379720759906e-05
-7.85379720759906e-05
-8.404940871290214e-05
-8.129369039444639e-05
-7.302653543907902e-05
-8.129369039444639e-05
-8.680512703135793e-05
-8.680512703135793e-05
-8.956084534981374e-05
-9.78280003051811e-05
-9.78280003051811e-05
-0.00010333943694209268
-0.00010333943694209268
-0.00010333943694209268
-0.00011436231021591582
-0.00010333943694209268
-9.231656366826955e-05
-8.404940871290214e-05
-6.751509880216745e-05
-5.9247943846800084e-05
-7.302653543907902e-05
-7.85379720759906e-05
-7.027081712062322e-05
-5.098078889143272e-05
-3.169076066224221e-05
-3.169076066224221e-05
-4.5469352254521147e-05
-4.5469352254521147e-05
-3.995791561760957e-05
-3.720219729915378e-05
-3.4446478980697995e-05
-3.995791561760957e-05
-3.995791561760957e-05
-3.169076066224221e-05
-2.6179324025330647e-05
-3.4446478980697995e-05
-3.4446478980697995e-05
-3.4446478980697995e-05
-3.720219729915378e-05
-4.2713633936065354e-05
-6.200366216525588e-05
-5.3736507209888505e-05
-2.8935042343786426e-05
-2.6179324025330647e-05
-3.720219729915378e-05
-4.5469352254521147e-05
-3.720219729915378e-05
-2.8935042343786426e-05
-3.169076066224221e-05
-3.4446478980697995e-05
-3.720219729915378e-05
-4.5469352254521147e-05
-4.8225070572976926e-05
-3.720219729915378e-05
-2.8935042343786426e-05
-4.2713633936065354e-05
-3.169076066224221e-05
-3.4446478980697995e-05
-4.2713633936065354e-05
-3.995791561760957e-05
-3.720219729915378e-05
-2.8935042343786426e-05
-3.4446478980697995e-05
-3.995791561760957e-05
-3.995791561760957e-05
-3.4446478980697995e-05
-2.342360570687485e-05
-1.240073243305171e-05
-9.64501411459592e-06
-1.240073243305171e-05
-1.5156450751507488e-05
-9.64501411459592e-06
-2.6179324025330647e-05
-3.169076066224221e-05
-3.720219729915378e-05
-4.2713633936065354e-05
-4.2713633936065354e-05
-4.5469352254521147e-05
-5.098078889143272e-05
-4.2713633936065354e-05
-4.8225070572976926e-05
-5.3736507209888505e-05
-4.5469352254521147e-05
-5.098078889143272e-05
-6.200366216525588e-05
-5.6492225528344285e-05
-3.4446478980697995e-05
-3.169076066224221e-05
-4.133577477684346e-06
2.8935042343785094e-05
6.200366216525454e-05
0.00017774383154039756
0.00042851419851987416
0.0007867575799191265
0.001128466651407644
0.0012662525673304335
0.0011560238345922017
0.0008611619745174325
0.0004367813534752416
7.853797207598924e-05
-8.404940871290214e-05
-0.0001364080567635621
-0.0001364080567635621
-0.0001364080567635621
-0.00013089662012665053
-0.00010885087357900426
-8.680512703135793e-05
-0.00010058371862363688
-0.00011160659189746003
-0.00011160659189746003
-8.956084534981374e-05
-0.00010058371862363688
-0.00010058371862363688
-8.129369039444639e-05
-8.129369039444639e-05
-7.57822537575348e-05
-7.302653543907902e-05
-7.027081712062322e-05
-7.85379720759906e-05
-8.680512703135793e-05
-7.85379720759906e-05
-8.129369039444639e-05
-7.302653543907902e-05
-7.57822537575348e-05
-7.85379720759906e-05
-6.475938048371164e-05
-5.9247943846800084e-05
-5.6492225528344285e-05
-5.9247943846800084e-05
-6.200366216525588e-05
-6.475938048371164e-05
-5.9247943846800084e-05
-5.6492225528344285e-05
-5.6492225528344285e-05
-5.098078889143272e-05
-3.995791561760957e-05
-1.5156450751507488e-05
-5.098078889143272e-05
-6.200366216525588e-05
-3.4446478980697995e-05
-2.342360570687485e-05
1.3778591592272275e-06
4.133577477683014e-06
1.2400732433050376e-05
2.6179324025329308e-05
3.9957915617608246e-05
4.271363393606403e-05
4.546935225451981e-05
5.373650720988717e-05
5.649222552834297e-05
6.475938048371032e-05
7.30265354390777e-05
6.475938048371032e-05
5.098078889143139e-05
3.720219729915245e-05
4.82250705729756e-05
5.649222552834297e-05
4.271363393606403e-05
3.169076066224089e-05
2.066788738841773e-05
4.133577477683014e-06
9.64501411459459e-06
2.3423605706873515e-05
2.6179324025329308e-05
2.3423605706873515e-05
1.2400732433050376e-05
-9.64501411459592e-06
-1.7912169069963278e-05
-3.4446478980697995e-05
-3.720219729915378e-05
-3.4446478980697995e-05
-3.4446478980697995e-05
-3.995791561760957e-05
-3.4446478980697995e-05
-3.4446478980697995e-05
-4.2713633936065354e-05
-5.3736507209888505e-05
-5.9247943846800084e-05
-4.8225070572976926e-05
-3.720219729915378e-05
-4.2713633936065354e-05
-3.4446478980697995e-05
-2.8935042343786426e-05
-4.8225070572976926e-05
-7.302653543907902e-05
-6.751509880216745e-05
-4.2713633936065354e-05
-2.8935042343786426e-05
-3.169076066224221e-05
-4.5469352254521147e-05
-4.5469352254521147e-05
-4.2713633936065354e-05
-3.720219729915378e-05
-3.995791561760957e-05
-4.5469352254521147e-05
-5.3736507209888505e-05
-5.6492225528344285e-05
-4.8225070572976926e-05
-3.720219729915378e-05
-4.2713633936065354e-05
-3.995791561760957e-05
-5.098078889143272e-05
-4.8225070572976926e-05
-2.342360570687485e-05
-1.7912169069963278e-05
-2.8935042343786426e-05
-2.342360570687485e-05
-3.4446478980697995e-05
-3.995791561760957e-05
-2.342360570687485e-05
-1.5156450751507488e-05
-6.889295796140132e-06
-1.377859159228559e-06
-6.889295796140132e-06
-1.5156450751507488e-05
-1.5156450751507488e-05
-6.889295796140132e-06
4.133577477683014e-06
4.133577477683014e-06
-9.64501411459592e-06
-1.240073243305171e-05
-9.64501411459592e-06
-1.240073243305171e-05
-2.066788738841907e-05
-1.240073243305171e-05
-9.64501411459592e-06
-1.5156450751507488e-05
-1.5156450751507488e-05
-6.889295796140132e-06
-6.889295796140132e-06
-9.64501411459592e-06
-2.6179324025330647e-05
-3.4446478980697995e-05
-2.6179324025330647e-05
-1.240073243305171e-05
4.133577477683014e-06
1.2400732433050376e-05
6.8892957961388014e-06
1.5156450751506162e-05
1.5156450751506162e-05
6.8892957961388014e-06
4.133577477683014e-06
9.64501411459459e-06
1.2400732433050376e-05
2.066788738841773e-05
1.3778591592272275e-06
-9.64501411459592e-06
9.64501411459459e-06
2.8935042343785094e-05
4.133577477683014e-06
-2.342360570687485e-05
-1.240073243305171e-05
-1.7912169069963278e-05
-2.6179324025330647e-05
-2.6179324025330647e-05
-3.169076066224221e-05
-2.8935042343786426e-05
-3.720219729915378e-05
-3.995791561760957e-05
-2.066788738841907e-05
-9.64501411459592e-06
-1.7912169069963278e-05
-2.6179324025330647e-05
-2.6179324025330647e-05
-1.5156450751507488e-05
-1.240073243305171e-05
-1.240073243305171e-05
6.8892957961388014e-06
3.720219729915245e-05
7.853797207598924e-05
0.00023010247959105753
0.0005222086213473709
0.001271764003967345
0.0014205727931639574
0.0013130997787441814
0.0010017036087586776
0.0005332314946211942
0.00014191949340047234
-6.200366216525588e-05
-0.00012814090180819475
-0.00014191949340047367
-0.0001171180285343716
-8.956084534981374e-05
-8.129369039444639e-05
-8.129369039444639e-05
-8.129369039444639e-05
-9.507228198672531e-05
-9.78280003051811e-05
-9.507228198672531e-05
-0.00010058371862363688
-0.00010058371862363688
-8.956084534981374e-05
-8.680512703135793e-05
-8.680512703135793e-05
-7.85379720759906e-05
-8.404940871290214e-05
-8.956084534981374e-05
-8.680512703135793e-05
-7.57822537575348e-05
-7.302653543907902e-05
-7.85379720759906e-05
-8.129369039444639e-05
-7.85379720759906e-05
-8.404940871290214e-05
-8.404940871290214e-05
-8.129369039444639e-05
-8.129369039444639e-05
-8.404940871290214e-05
-8.680512703135793e-05
-5.3736507209888505e-05
-4.2713633936065354e-05
-5.3736507209888505e-05
-5.3736507209888505e-05
-5.6492225528344285e-05
-6.200366216525588e-05
-5.6492225528344285e-05
-3.4446478980697995e-05
-4.2713633936065354e-05
-4.8225070572976926e-05
-3.4446478980697995e-05
-2.8935042343786426e-05
-2.066788738841907e-05
-1.240073243305171e-05
-6.889295796140132e-06
4.133577477683014e-06
2.066788738841773e-05
3.9957915617608246e-05
4.271363393606403e-05
3.9957915617608246e-05
4.546935225451981e-05
3.9957915617608246e-05
3.9957915617608246e-05
5.373650720988717e-05
5.9247943846798756e-05
6.200366216525454e-05
6.475938048371032e-05
5.9247943846798756e-05
3.169076066224089e-05
2.8935042343785094e-05
1.5156450751506162e-05
2.066788738841773e-05
1.7912169069961946e-05
-1.377859159228559e-06
-4.133577477684346e-06
-1.240073243305171e-05
-1.7912169069963278e-05
-2.066788738841907e-05
-2.066788738841907e-05
-2.342360570687485e-05
-3.720219729915378e-05
-4.5469352254521147e-05
-5.098078889143272e-05
-6.200366216525588e-05
-6.751509880216745e-05
-6.475938048371164e-05
-4.8225070572976926e-05
-4.2713633936065354e-05
-3.720219729915378e-05
-3.4446478980697995e-05
-3.4446478980697995e-05
-2.8935042343786426e-05
-3.720219729915378e-05
-3.4446478980697995e-05
-3.4446478980697995e-05
-3.720219729915378e-05
-3.169076066224221e-05
-4.2713633936065354e-05
-4.5469352254521147e-05
-4.5469352254521147e-05
-3.720219729915378e-05
-3.995791561760957e-05
-5.6492225528344285e-05
-4.8225070572976926e-05
-4.5469352254521147e-05
-5.3736507209888505e-05
-5.6492225528344285e-05
-4.5469352254521147e-05
-3.4446478980697995e-05
-4.8225070572976926e-05
-6.475938048371164e-05
-6.751509880216745e-05
-4.2713633936065354e-05
-2.8935042343786426e-05
-2.8935042343786426e-05
-3.720219729915378e-05
-3.169076066224221e-05
-2.8935042343786426e-05
-2.8935042343786426e-05
-4.8225070572976926e-05
-3.995791561760957e-05
-4.2713633936065354e-05
-3.4446478980697995e-05
-1.7912169069963278e-05
-2.6179324025330647e-05
-3.720219729915378e-05
-3.720219729915378e-05
-2.8935042343786426e-05
-2.6179324025330647e-05
-2.6179324025330647e-05
-3.4446478980697995e-05
-2.342360570687485e-05
-1.240073243305171e-05
-1.7912169069963278e-05
-3.720219729915378e-05
-1.240073243305171e-05
-1.240073243305171e-05
-1.5156450751507488e-05
-1.240073243305171e-05
-3.169076066224221e-05
-3.995791561760957e-05
-2.066788738841907e-05
-2.066788738841907e-05
-2.066788738841907e-05
-2.342360570687485e-05
-3.169076066224221e-05
-2.066788738841907e-05
-1.5156450751507488e-05
-1.7912169069963278e-05
-1.7912169069963278e-05
-1.5156450751507488e-05
-6.889295796140132e-06
1.3778591592272275e-06
-4.133577477684346e-06
6.8892957961388014e-06
2.066788738841773e-05
1.5156450751506162e-05
9.64501411459459e-06
-4.133577477684346e-06
-1.5156450751507488e-05
-1.5156450751507488e-05
-1.377859159228559e-06
9.64501411459459e-06
1.5156450751506162e-05
6.8892957961388014e-06
-9.64501411459592e-06
-2.066788738841907e-05
-3.4446478980697995e-05
-2.6179324025330647e-05
-2.6179324025330647e-05
-3.4446478980697995e-05
-2.8935042343786426e-05
-2.8935042343786426e-05
-4.2713633936065354e-05
-3.4446478980697995e-05
-3.169076066224221e-05
-3.995791561760957e-05
-3.720219729915378e-05
-6.889295796140132e-06
-1.377859159228559e-06
1.3778591592272275e-06
2.6179324025329308e-05
6.751509880216611e-05
0.0001694766765850302
0.0003982012970168605
0.0007316432135500107
0.001103665186541542
0.00135994699015793
0.0013654584267948416
0.0011229552147707324
0.0006985745937285414
0.00024663678950179223
-4.133577477684346e-06
-9.507228198672531e-05
-0.00010609515526054846
-0.00010058371862363688
-9.507228198672531e-05
-9.231656366826955e-05
-8.956084534981374e-05
-0.00010609515526054846
-0.00011436231021591582
-0.00010333943694209268
-9.231656366826955e-05
-8.404940871290214e-05
-8.956084534981374e-05
-9.78280003051811e-05
-0.00010058371862363688
-8.404940871290214e-05
-8.404940871290214e-05
-9.78280003051811e-05
-0.00010333943694209268
-8.404940871290214e-05
-8.129369039444639e-05
-9.507228198672531e-05
-9.231656366826955e-05
-9.231656366826955e-05
-9.507228198672531e-05
-8.129369039444639e-05
-8.404940871290214e-05
-7.57822537575348e-05
-7.027081712062322e-05
-7.027081712062322e-05
-7.302653543907902e-05
-6.475938048371164e-05
-6.475938048371164e-05
-6.751509880216745e-05
-5.9247943846800084e-05
-5.3736507209888505e-05
-5.6492225528344285e-05
-5.3736507209888505e-05
-3.995791561760957e-05
-3.995791561760957e-05
-4.8225070572976926e-05
-4.5469352254521147e-05
-2.342360570687485e-05
-2.6179324025330647e-05
-9.64501411459592e-06
1.3778591592272275e-06
1.5156450751506162e-05
3.720219729915245e-05
4.546935225451981e-05
3.720219729915245e-05
3.169076066224089e-05
3.169076066224089e-05
3.444647898069667e-05
3.444647898069667e-05
3.9957915617608246e-05
2.8935042343785094e-05
2.6179324025329308e-05
2.6179324025329308e-05
2.3423605706873515e-05
1.5156450751506162e-05
6.8892957961388014e-06
1.5156450751506162e-05
6.8892957961388014e-06
-1.377859159228559e-06
4.133577477683014e-06
-4.133577477684346e-06
-2.342360570687485e-05
-2.8935042343786426e-05
-2.6179324025330647e-05
-3.4446478980697995e-05
-3.995791561760957e-05
-4.5469352254521147e-05
-7.027081712062322e-05
-5.9247943846800084e-05
-5.6492225528344285e-05
-6.475938048371164e-05
-6.751509880216745e-05
-5.9247943846800084e-05
-6.475938048371164e-05
-7.027081712062322e-05
-7.027081712062322e-05
-6.200366216525588e-05
-6.200366216525588e-05
-6.200366216525588e-05
-5.3736507209888505e-05
-6.475938048371164e-05
-7.027081712062322e-05
-5.9247943846800084e-05
-5.098078889143272e-05
-5.6492225528344285e-05
-6.475938048371164e-05
-6.751509880216745e-05
-6.200366216525588e-05
-6.200366216525588e-05
-5.3736507209888505e-05
-5.098078889143272e-05
-5.3736507209888505e-05
-6.200366216525588e-05
-6.475938048371164e-05
-7.85379720759906e-05
-7.302653543907902e-05
-6.751509880216745e-05
-6.200366216525588e-05
-5.3736507209888505e-05
-5.3736507209888505e-05
-5.3736507209888505e-05
-5.6492225528344285e-05
-4.5469352254521147e-05
-4.2713633936065354e-05
-4.5469352254521147e-05
-4.2713633936065354e-05
-5.3736507209888505e-05
-5.6492225528344285e-05
-3.995791561760957e-05
-2.6179324025330647e-05
-3.169076066224221e-05
-3.720219729915378e-05
-3.4446478980697995e-05
-3.995791561760957e-05
-4.8225070572976926e-05
-4.8225070572976926e-05
-4.5469352254521147e-05
-3.995791561760957e-05
-3.995791561760957e-05
-4.2713633936065354e-05
-4.5469352254521147e-05
-4.8225070572976926e-05
-5.6492225528344285e-05
-4.5469352254521147e-05
-3.169076066224221e-05
-3.720219729915378e-05
-3.995791561760957e-05
-3.169076066224221e-05
-3.995791561760957e-05
-5.3736507209888505e-05
-4.2713633936065354e-05
-2.8935042343786426e-05
-2.6179324025330647e-05
-2.066788738841907e-05
-1.7912169069963278e-05
-2.8935042343786426e-05
-2.6179324025330647e-05
-1.7912169069963278e-05
-9.64501411459592e-06
1.3778591592272275e-06
-6.889295796140132e-06
-1.7912169069963278e-05
-1.240073243305171e-05
-1.7912169069963278e-05
-1.5156450751507488e-05
-6.889295796140132e-06
-6.889295796140132e-06
-1.240073243305171e-05
-9.64501411459592e-06
-6.889295796140132e-06
-2.6179324025330647e-05
-5.9247943846800084e-05
-5.6492225528344285e-05
-4.2713633936065354e-05
-3.4446478980697995e-05
-2.6179324025330647e-05
-3.720219729915378e-05
-2.6179324025330647e-05
-2.8935042343786426e-05
-3.169076066224221e-05
-3.169076066224221e-05
-3.169076066224221e-05
-3.720219729915378e-05
-3.720219729915378e-05
-3.4446478980697995e-05
-3.995791561760957e-05
-3.720219729915378e-05
1.3778591592272275e-06
5.373650720988717e-05
7.30265354390777e-05
0.00011987374685282605
0.00027970540932326175
0.0006076358892195001
0.0009934364538033101
0.0012386953841458756
0.0012221610742351409
0.0010099707637140451
0.0006351930724040583
0.00022734676127260172
-2.066788738841907e-05
-0.0001171180285343716
-0.00012814090180819475
-0.00010885087357900426
-0.00010885087357900426
-0.00010333943694209268
-8.129369039444639e-05
-8.404940871290214e-05
-9.507228198672531e-05
-0.00011160659189746003
-0.00010885087357900426
-9.507228198672531e-05
-8.956084534981374e-05
-9.231656366826955e-05
-7.85379720759906e-05
-8.129369039444639e-05
-9.231656366826955e-05
-8.956084534981374e-05
-8.680512703135793e-05
-8.404940871290214e-05
-8.129369039444639e-05
-7.57822537575348e-05
-7.85379720759906e-05
-7.85379720759906e-05
-8.680512703135793e-05
-6.751509880216745e-05
-5.3736507209888505e-05
-6.751509880216745e-05
-8.129369039444639e-05
-7.027081712062322e-05
-6.200366216525588e-05
-4.2713633936065354e-05
-3.995791561760957e-05
-3.720219729915378e-05
-3.720219729915378e-05
-3.169076066224221e-05
-2.6179324025330647e-05
-1.7912169069963278e-05
-1.240073243305171e-05
-2.342360570687485e-05
-2.342360570687485e-05
-1.240073243305171e-05
-1.377859159228559e-06
4.133577477683014e-06
4.133577477683014e-06
1.5156450751506162e-05
3.720219729915245e-05
4.546935225451981e-05
4.546935225451981e-05
5.649222552834297e-05
5.649222552834297e-05
5.9247943846798756e-05
5.9247943846798756e-05
4.82250705729756e-05
4.546935225451981e-05
5.373650720988717e-05
5.649222552834297e-05
5.098078889143139e-05
3.720219729915245e-05
2.6179324025329308e-05
2.6179324025329308e-05
3.444647898069667e-05
3.169076066224089e-05
1.5156450751506162e-05
9.64501411459459e-06
4.133577477683014e-06
-1.7912169069963278e-05
-2.066788738841907e-05
-2.6179324025330647e-05
-3.720219729915378e-05
-4.5469352254521147e-05
-4.2713633936065354e-05
-3.995791561760957e-05
-4.8225070572976926e-05
-4.8225070572976926e-05
-4.8225070572976926e-05
-4.5469352254521147e-05
-3.995791561760957e-05
-4.5469352254521147e-05
-5.098078889143272e-05
-3.995791561760957e-05
-4.5469352254521147e-05
-5.3736507209888505e-05
-4.8225070572976926e-05
-5.098078889143272e-05
-6.200366216525588e-05
-7.302653543907902e-05
-5.098078889143272e-05
-4.2713633936065354e-05
-5.098078889143272e-05
-5.3736507209888505e-05
-4.8225070572976926e-05
-5.3736507209888505e-05
-4.5469352254521147e-05
-4.5469352254521147e-05
-5.3736507209888505e-05
-5.6492225528344285e-05
-5.098078889143272e-05
-5.098078889143272e-05
-5.098078889143272e-05
-3.4446478980697995e-05
-3.995791561760957e-05
-3.720219729915378e-05
-3.169076066224221e-05
-2.8935042343786426e-05
-3.720219729915378e-05
-3.720219729915378e-05
-2.342360570687485e-05
-1.7912169069963278e-05
-1.240073243305171e-05
-1.240073243305171e-05
-6.889295796140132e-06
-2.6179324025330647e-05
-3.995791561760957e-05
-2.8935042343786426e-05
-2.342360570687485e-05
-2.342360570687485e-05
-9.64501411459592e-06
-9.64501411459592e-06
-6.889295796140132e-06
-6.889295796140132e-06
-1.7912169069963278e-05
-1.240073243305171e-05
-6.889295796140132e-06
-4.133577477684346e-06
-1.7912169069963278e-05
-2.8935042343786426e-05
-2.342360570687485e-05
-1.240073243305171e-05
-9.64501411459592e-06
-9.64501411459592e-06
-6.889295796140132e-06
-6.889295796140132e-06
-1.240073243305171e-05
-1.5156450751507488e-05
-6.889295796140132e-06
-1.377859159228559e-06
-9.64501411459592e-06
-6.889295796140132e-06
1.7912169069961946e-05
1.2400732433050376e-05
1.3778591592272275e-06
-1.377859159228559e-06
-1.240073243305171e-05
-4.133577477684346e-06
6.8892957961388014e-06
1.2400732433050376e-05
1.7912169069961946e-05
1.5156450751506162e-05
1.3778591592272275e-06
-1.5156450751507488e-05
-1.7912169069963278e-05
-1.240073243305171e-05
-1.5156450751507488e-05
-1.5156450751507488e-05
-2.6179324025330647e-05
-3.169076066224221e-05
-2.8935042343786426e-05
-1.5156450751507488e-05
-3.169076066224221e-05
-4.5469352254521147e-05
-3.720219729915378e-05
-3.169076066224221e-05
-2.342360570687485e-05
-2.342360570687485e-05
-3.169076066224221e-05
-2.342360570687485e-05
1.3778591592272275e-06
4.271363393606403e-05
7.578225375753347e-05
0.00014743093003738393
0.000340331212329289
0.0006655059739070718
0.0010209936369878683
0.0012138939192797731
0.001167046707866025
0.0009272992141603715
0.000547010086213473
0.000172232394903486
-5.3736507209888505e-05
-0.0001198737468528274
-0.0001171180285343716
-0.00011160659189746003
-0.00010333943694209268
-9.78280003051811e-05
-9.231656366826955e-05
-8.129369039444639e-05
-7.302653543907902e-05
-8.404940871290214e-05
-8.956084534981374e-05
-8.129369039444639e-05
-7.027081712062322e-05
-8.129369039444639e-05
-8.129369039444639e-05
-7.85379720759906e-05
-6.751509880216745e-05
-7.027081712062322e-05
-6.751509880216745e-05
-6.475938048371164e-05
-7.027081712062322e-05
-6.751509880216745e-05
-5.3736507209888505e-05
-6.200366216525588e-05
-6.200366216525588e-05
-6.475938048371164e-05
-6.751509880216745e-05
-5.9247943846800084e-05
-5.098078889143272e-05
-5.9247943846800084e-05
-5.3736507209888505e-05
-4.5469352254521147e-05
-4.5469352254521147e-05
-4.5469352254521147e-05
-3.720219729915378e-05
-2.6179324025330647e-05
-1.5156450751507488e-05
-1.240073243305171e-05
-6.889295796140132e-06
-2.066788738841907e-05
-1.240073243305171e-05
4.133577477683014e-06
4.133577477683014e-06
4.133577477683014e-06
2.6179324025329308e-05
4.546935225451981e-05
4.82250705729756e-05
5.373650720988717e-05
5.649222552834297e-05
5.373650720988717e-05
5.373650720988717e-05
5.649222552834297e-05
5.373650720988717e-05
6.200366216525454e-05
5.649222552834297e-05
4.546935225451981e-05
6.200366216525454e-05
5.9247943846798756e-05
5.373650720988717e-05
4.271363393606403e-05
4.546935225451981e-05
4.546935225451981e-05
1.2400732433050376e-05
9.64501411459459e-06
1.5156450751506162e-05
-1.240073243305171e-05
-1.5156450751507488e-05
-1.5156450751507488e-05
-2.342360570687485e-05
-2.342360570687485e-05
-2.8935042343786426e-05
-2.6179324025330647e-05
-3.169076066224221e-05
-3.4446478980697995e-05
-3.720219729915378e-05
-3.995791561760957e-05
-3.169076066224221e-05
-3.169076066224221e-05
-3.720219729915378e-05
-3.720219729915378e-05
-3.720219729915378e-05
-4.2713633936065354e-05
-4.2713633936065354e-05
-2.8935042343786426e-05
-2.342360570687485e-05
-4.8225070572976926e-05
-6.751509880216745e-05
-5.098078889143272e-05
-3.995791561760957e-05
-4.5469352254521147e-05
-4.5469352254521147e-05
-4.2713633936065354e-05
-4.2713633936065354e-05
-4.8225070572976926e-05
-5.6492225528344285e-05
-6.751509880216745e-05
-5.9247943846800084e-05
-4.5469352254521147e-05
-4.5469352254521147e-05
-4.5469352254521147e-05
-3.995791561760957e-05
-3.169076066224221e-05
-2.8935042343786426e-05
-2.342360570687485e-05
-2.342360570687485e-05
-2.6179324025330647e-05
-1.7912169069963278e-05
-1.240073243305171e-05
-1.377859159228559e-06
9.64501411459459e-06
1.3778591592272275e-06
1.3778591592272275e-06
4.133577477683014e-06
-1.240073243305171e-05
-1.5156450751507488e-05
-6.889295796140132e-06
6.8892957961388014e-06
1.2400732433050376e-05
-4.133577477684346e-06
-9.64501411459592e-06
-6.889295796140132e-06
1.2400732433050376e-05
9.64501411459459e-06
4.133577477683014e-06
-9.64501411459592e-06
-1.240073243305171e-05
-9.64501411459592e-06
-1.7912169069963278e-05
-2.342360570687485e-05
-2.066788738841907e-05
-6.889295796140132e-06
-1.240073243305171e-05
-6.889295796140132e-06
6.8892957961388014e-06
1.2400732433050376e-05
1.3778591592272275e-06
-9.64501411459592e-06
-9.64501411459592e-06
4.133577477683014e-06
6.8892957961388014e-06
1.2400732433050376e-05
1.7912169069961946e-05
1.2400732433050376e-05
6.8892957961388014e-06
1.3778591592272275e-06
4.133577477683014e-06
1.7912169069961946e-05
2.3423605706873515e-05
2.6179324025329308e-05
2.3423605706873515e-05
1.2400732433050376e-05
-9.64501411459592e-06
-1.240073243305171e-05
-1.5156450751507488e-05
-1.240073243305171e-05
4.133577477683014e-06
-1.7912169069963278e-05
-2.066788738841907e-05
-6.889295796140132e-06
-1.7912169069963278e-05
-2.342360570687485e-05
-1.7912169069963278e-05
-1.240073243305171e-05
-2.6179324025330647e-05
-2.8935042343786426e-05
-2.8935042343786426e-05
-1.240073243305171e-05
3.444647898069667e-05
6.751509880216611e-05
0.00014743093003738393
0.00033206405737392166
0.0006627502555886161
0.001037527946898603
0.0012800311589227123
0.0012772754406042562
0.0010650851300831607
0.000687551720454718
0.000263171099412527
1.2400732433050376e-05
-8.680512703135793e-05
-0.00011436231021591582
-0.00011160659189746003
-8.404940871290214e-05
-7.027081712062322e-05
-6.475938048371164e-05
-6.475938048371164e-05
-7.57822537575348e-05
-8.129369039444639e-05
-7.027081712062322e-05
-6.200366216525588e-05
-7.027081712062322e-05
-6.751509880216745e-05
-5.6492225528344285e-05
-6.200366216525588e-05
-6.751509880216745e-05
-6.200366216525588e-05
-6.200366216525588e-05
-5.3736507209888505e-05
-4.5469352254521147e-05
-4.8225070572976926e-05
-5.3736507209888505e-05
-7.57822537575348e-05
-6.475938048371164e-05
-3.169076066224221e-05
-2.6179324025330647e-05
-2.8935042343786426e-05
-2.6179324025330647e-05
-3.4446478980697995e-05
-2.066788738841907e-05
-9.64501411459592e-06
-4.133577477684346e-06
-2.342360570687485e-05
-2.6179324025330647e-05
-2.342360570687485e-05
-1.7912169069963278e-05
-6.889295796140132e-06
-4.133577477684346e-06
-4.133577477684346e-06
1.3778591592272275e-06
1.2400732433050376e-05
2.066788738841773e-05
2.066788738841773e-05
3.169076066224089e-05
5.649222552834297e-05
5.9247943846798756e-05
5.373650720988717e-05
5.373650720988717e-05
5.373650720988717e-05
7.02708171206219e-05
8.68051270313566e-05
9.507228198672396e-05
0.00010333943694209132
9.782800030517979e-05
0.00010058371862363556
8.68051270313566e-05
7.02708171206219e-05
7.02708171206219e-05
7.30265354390777e-05
6.751509880216611e-05
6.200366216525454e-05
4.271363393606403e-05
3.9957915617608246e-05
3.720219729915245e-05
3.169076066224089e-05
2.3423605706873515e-05
1.5156450751506162e-05
-1.377859159228559e-06
-9.64501411459592e-06
-2.066788738841907e-05
-2.066788738841907e-05
-1.240073243305171e-05
-9.64501411459592e-06
-3.169076066224221e-05
-3.169076066224221e-05
-6.889295796140132e-06
4.133577477683014e-06
-1.5156450751507488e-05
-2.6179324025330647e-05
-1.7912169069963278e-05
-1.240073243305171e-05
-1.240073243305171e-05
-9.64501411459592e-06
-1.240073243305171e-05
-1.7912169069963278e-05
-1.7912169069963278e-05
-1.5156450751507488e-05
-1.5156450751507488e-05
-2.066788738841907e-05
-2.342360570687485e-05
-2.6179324025330647e-05
-2.066788738841907e-05
-2.6179324025330647e-05
-3.169076066224221e-05
-3.4446478980697995e-05
-4.8225070572976926e-05
-3.995791561760957e-05
-2.6179324025330647e-05
-3.169076066224221e-05
-4.8225070572976926e-05
-3.995791561760957e-05
-6.889295796140132e-06
-1.377859159228559e-06
-1.5156450751507488e-05
-1.240073243305171e-05
-1.7912169069963278e-05
-1.5156450751507488e-05
-1.7912169069963278e-05
-6.889295796140132e-06
-1.240073243305171e-05
-6.889295796140132e-06
4.133577477683014e-06
-1.377859159228559e-06
-1.377859159228559e-06
1.3778591592272275e-06
-9.64501411459592e-06
-4.133577477684346e-06
-1.377859159228559e-06
-1.240073243305171e-05
-6.889295796140132e-06
4.133577477683014e-06
4.133577477683014e-06
1.3778591592272275e-06
-9.64501411459592e-06
-1.7912169069963278e-05
-1.377859159228559e-06
1.5156450751506162e-05
6.8892957961388014e-06
1.3778591592272275e-06
-1.377859159228559e-06
6.8892957961388014e-06
4.133577477683014e-06
-4.133577477684346e-06
4.133577477683014e-06
4.133577477683014e-06
9.64501411459459e-06
2.066788738841773e-05
2.066788738841773e-05
2.066788738841773e-05
1.5156450751506162e-05
1.5156450751506162e-05
1.2400732433050376e-05
2.3423605706873515e-05
1.7912169069961946e-05
1.7912169069961946e-05
3.169076066224089e-05
3.9957915617608246e-05
3.169076066224089e-05
1.7912169069961946e-05
1.3778591592272275e-06
1.3778591592272275e-06
-2.066788738841907e-05
-1.240073243305171e-05
6.8892957961388014e-06
-4.133577477684346e-06
-2.066788738841907e-05
-1.5156450751507488e-05
-1.377859159228559e-06
1.3778591592272275e-06
-4.133577477684346e-06
-1.240073243305171e-05
-1.7912169069963278e-05
-2.066788738841907e-05
-1.5156450751507488e-05
-1.377859159228559e-06
2.3423605706873515e-05
3.444647898069667e-05
5.649222552834297e-05
9.23165636682682e-05
0.00024112535286488067
0.0005222086213473709
0.0009107649042496368
0.0012827868772411677
0.001453641412985427
0.00135994699015793
0.001048550820172426
0.0005800787060349425
0.00016672095826657444
-5.098078889143272e-05
-0.00011436231021591582
-0.00010058371862363688
-9.231656366826955e-05
-8.404940871290214e-05
-6.475938048371164e-05
-7.027081712062322e-05
-6.200366216525588e-05
-6.475938048371164e-05
-7.57822537575348e-05
-6.200366216525588e-05
-6.200366216525588e-05
-6.751509880216745e-05
-6.751509880216745e-05
-7.85379720759906e-05
-6.751509880216745e-05
-7.027081712062322e-05
-7.027081712062322e-05
-5.6492225528344285e-05
-5.9247943846800084e-05
-6.475938048371164e-05
-6.200366216525588e-05
-6.475938048371164e-05
-5.3736507209888505e-05
-4.8225070572976926e-05
-4.5469352254521147e-05
-4.8225070572976926e-05
-5.6492225528344285e-05
-7.302653543907902e-05
-5.9247943846800084e-05
-3.4446478980697995e-05
-2.8935042343786426e-05
-3.4446478980697995e-05
-3.4446478980697995e-05
-3.169076066224221e-05
-3.169076066224221e-05
-2.8935042343786426e-05
-2.8935042343786426e-05
-2.8935042343786426e-05
-1.7912169069963278e-05
-9.64501411459592e-06
-6.889295796140132e-06
-1.377859159228559e-06
1.5156450751506162e-05
2.3423605706873515e-05
2.8935042343785094e-05
4.271363393606403e-05
4.546935225451981e-05
4.546935225451981e-05
6.200366216525454e-05
7.853797207598924e-05
8.404940871290084e-05
7.30265354390777e-05
6.751509880216611e-05
6.475938048371032e-05
6.475938048371032e-05
6.200366216525454e-05
5.373650720988717e-05
3.444647898069667e-05
4.271363393606403e-05
5.9247943846798756e-05
5.373650720988717e-05
5.373650720988717e-05
3.444647898069667e-05
1.5156450751506162e-05
9.64501411459459e-06
1.3778591592272275e-06
-6.889295796140132e-06
-9.64501411459592e-06
-1.7912169069963278e-05
-9.64501411459592e-06
-2.6179324025330647e-05
-2.6179324025330647e-05
-2.6179324025330647e-05
-2.066788738841907e-05
-1.5156450751507488e-05
-2.342360570687485e-05
-3.4446478980697995e-05
-4.2713633936065354e-05
-3.169076066224221e-05
-2.8935042343786426e-05
-4.2713633936065354e-05
-4.8225070572976926e-05
-3.4446478980697995e-05
-1.7912169069963278e-05
-1.5156450751507488e-05
-1.5156450751507488e-05
-1.240073243305171e-05
-1.5156450751507488e-05
-2.6179324025330647e-05
-3.4446478980697995e-05
-3.169076066224221e-05
-2.066788738841907e-05
-2.6179324025330647e-05
-4.5469352254521147e-05
-4.2713633936065354e-05
-3.720219729915378e-05
-3.995791561760957e-05
-3.720219729915378e-05
-3.995791561760957e-05
-3.720219729915378e-05
-3.720219729915378e-05
-3.995791561760957e-05
-4.8225070572976926e-05
-5.098078889143272e-05
-4.2713633936065354e-05
-3.720219729915378e-05
-3.720219729915378e-05
-4.2713633936065354e-05
-5.098078889143272e-05
-4.5469352254521147e-05
-2.6179324025330647e-05
-1.7912169069963278e-05
-2.342360570687485e-05
-2.6179324025330647e-05
-2.8935042343786426e-05
-1.5156450751507488e-05
1.3778591592272275e-06
-6.889295796140132e-06
-2.6179324025330647e-05
-1.5156450751507488e-05
-1.240073243305171e-05
-4.133577477684346e-06
-9.64501411459592e-06
-1.7912169069963278e-05
-1.5156450751507488e-05
-1.7912169069963278e-05
-1.240073243305171e-05
-6.889295796140132e-06
-9.64501411459592e-06
-1.5156450751507488e-05
-1.5156450751507488e-05
-9.64501411459592e-06
-4.133577477684346e-06
-1.240073243305171e-05
-2.066788738841907e-05
-1.377859159228559e-06
-6.889295796140132e-06
-2.066788738841907e-05
-1.5156450751507488e-05
1.2400732433050376e-05
2.8935042343785094e-05
2.6179324025329308e-05
2.3423605706873515e-05
1.5156450751506162e-05
1.2400732433050376e-05
2.6179324025329308e-05
2.3423605706873515e-05
1.2400732433050376e-05
6.8892957961388014e-06
-6.889295796140132e-06
-9.64501411459592e-06
-6.889295796140132e-06
-6.889295796140132e-06
-1.377859159228559e-06
-1.377859159228559e-06
-9.64501411459592e-06
-1.7912169069963278e-05
-2.066788738841907e-05
-2.8935042343786426e-05
-2.6179324025330647e-05
-2.342360570687485e-05
-3.4446478980697995e-05
-4.2713633936065354e-05
-3.995791561760957e-05
-3.4446478980697995e-05
-9.64501411459592e-06
1.7912169069961946e-05
3.720219729915245e-05
7.02708171206219e-05
0.00015018664835583973
0.0003568655222400236
0.0006958188754100854
0.0010953980315861747
0.0013654584267948416
0.0013875041733424878
0.001180825299458304
0.000806047608148317
0.0003485983672846564
4.546935225451981e-05
-8.129369039444639e-05
-0.00010333943694209268
-8.680512703135793e-05
-8.129369039444639e-05
-7.57822537575348e-05
-7.302653543907902e-05
-7.85379720759906e-05
-8.680512703135793e-05
-7.85379720759906e-05
-7.57822537575348e-05
-9.231656366826955e-05
-9.231656366826955e-05
-7.302653543907902e-05
-7.027081712062322e-05
-7.57822537575348e-05
-7.302653543907902e-05
-7.85379720759906e-05
-7.027081712062322e-05
-7.027081712062322e-05
-7.302653543907902e-05
-6.200366216525588e-05
-7.027081712062322e-05
-7.57822537575348e-05
-7.85379720759906e-05
-7.027081712062322e-05
-5.6492225528344285e-05
-5.3736507209888505e-05
-5.3736507209888505e-05
-4.2713633936065354e-05
-4.8225070572976926e-05
-5.6492225528344285e-05
-5.6492225528344285e-05
-5.9247943846800084e-05
-6.200366216525588e-05
-4.8225070572976926e-05
-4.5469352254521147e-05
-5.3736507209888505e-05
-5.3736507209888505e-05
-6.200366216525588e-05
-4.5469352254521147e-05
-2.6179324025330647e-05
-2.066788738841907e-05
-1.377859159228559e-06
1.3778591592272275e-06
-6.889295796140132e-06
6.8892957961388014e-06
2.3423605706873515e-05
3.169076066224089e-05
4.82250705729756e-05
5.649222552834297e-05
5.373650720988717e-05
4.546935225451981e-05
5.098078889143139e-05
5.649222552834297e-05
4.82250705729756e-05
4.82250705729756e-05
3.9957915617608246e-05
2.8935042343785094e-05
3.720219729915245e-05
3.720219729915245e-05
2.3423605706873515e-05
9.64501411459459e-06
1.5156450751506162e-05
9.64501411459459e-06
-1.240073243305171e-05
-1.7912169069963278e-05
-1.5156450751507488e-05
-4.133577477684346e-06
-1.377859159228559e-06
-6.889295796140132e-06
-1.7912169069963278e-05
-3.720219729915378e-05
-4.2713633936065354e-05
-4.2713633936065354e-05
-4.2713633936065354e-05
-5.3736507209888505e-05
-4.5469352254521147e-05
-4.8225070572976926e-05
-5.3736507209888505e-05
-5.3736507209888505e-05
-4.8225070572976926e-05
-4.8225070572976926e-05
-5.3736507209888505e-05
-5.9247943846800084e-05
-5.098078889143272e-05
-4.8225070572976926e-05
-5.3736507209888505e-05
-5.3736507209888505e-05
-5.098078889143272e-05
-5.6492225528344285e-05
-5.9247943846800084e-05
-6.200366216525588e-05
-5.098078889143272e-05
-5.9247943846800084e-05
-5.6492225528344285e-05
-5.6492225528344285e-05
-8.129369039444639e-05
-7.85379720759906e-05
-5.9247943846800084e-05
-4.8225070572976926e-05
-5.098078889143272e-05
-5.9247943846800084e-05
-6.200366216525588e-05
-6.200366216525588e-05
-5.9247943846800084e-05
-6.475938048371164e-05
-5.9247943846800084e-05
-5.098078889143272e-05
-4.2713633936065354e-05
-4.2713633936065354e-05
-5.9247943846800084e-05
-3.995791561760957e-05
-2.6179324025330647e-05
-3.720219729915378e-05
-3.720219729915378e-05
-3.169076066224221e-05
-3.4446478980697995e-05
-4.8225070572976926e-05
-4.2713633936065354e-05
-3.720219729915378e-05
-4.5469352254521147e-05
-4.5469352254521147e-05
-4.2713633936065354e-05
-3.720219729915378e-05
-3.720219729915378e-05
-4.5469352254521147e-05
-4.2713633936065354e-05
-4.2713633936065354e-05
-3.995791561760957e-05
-4.8225070572976926e-05
-5.6492225528344285e-05
-3.995791561760957e-05
-3.4446478980697995e-05
-3.4446478980697995e-05
-3.4446478980697995e-05
-2.066788738841907e-05
-1.240073243305171e-05
-2.066788738841907e-05
-3.169076066224221e-05
-3.720219729915378e-05
-4.2713633936065354e-05
-3.169076066224221e-05
-1.7912169069963278e-05
-1.5156450751507488e-05
-1.5156450751507488e-05
-6.889295796140132e-06
-1.5156450751507488e-05
-2.066788738841907e-05
-2.066788738841907e-05
-1.240073243305171e-05
-1.7912169069963278e-05
-1.240073243305171e-05
-9.64501411459592e-06
-2.6179324025330647e-05
-2.066788738841907e-05
-2.066788738841907e-05
-2.8935042343786426e-05
-3.169076066224221e-05
-3.4446478980697995e-05
-3.995791561760957e-05
-6.751509880216745e-05
-6.475938048371164e-05
-5.098078889143272e-05
-4.5469352254521147e-05
-4.8225070572976926e-05
-4.8225070572976926e-05
-4.2713633936065354e-05
-3.995791561760957e-05
-5.098078889143272e-05
-6.200366216525588e-05
-3.995791561760957e-05
-4.133577477684346e-06
2.3423605706873515e-05
5.373650720988717e-05
0.00015018664835583973
0.00037891126878767
0.0007399103685053779
0.0011009094682230861
0.0012800311589227123
0.0012166496375982292
0.000971390707255664
0.0005663001144426635
0.00017498811322194178
-4.5469352254521147e-05
-0.00012814090180819475
-0.0001364080567635621
-0.00012814090180819475
-0.0001226294651712832
-0.0001171180285343716
-0.0001336523384451063
-0.00012814090180819475
-0.00010333943694209268
-9.231656366826955e-05
-9.231656366826955e-05
-9.78280003051811e-05
-0.00010885087357900426
-0.00011436231021591582
-0.00010058371862363688
-9.507228198672531e-05
-9.231656366826955e-05
-8.956084534981374e-05
-9.231656366826955e-05
-9.231656366826955e-05
-9.231656366826955e-05
-8.956084534981374e-05
-8.956084534981374e-05
-9.231656366826955e-05
-8.404940871290214e-05
-7.57822537575348e-05
-7.302653543907902e-05
-7.85379720759906e-05
-7.85379720759906e-05
-6.751509880216745e-05
-6.200366216525588e-05
-7.302653543907902e-05
-7.302653543907902e-05
-7.302653543907902e-05
-7.85379720759906e-05
-5.9247943846800084e-05
-5.098078889143272e-05
-6.200366216525588e-05
-7.027081712062322e-05
-6.200366216525588e-05
-4.8225070572976926e-05
-2.8935042343786426e-05
-2.8935042343786426e-05
-1.5156450751507488e-05
-1.377859159228559e-06
9.64501411459459e-06
1.2400732433050376e-05
1.2400732433050376e-05
1.7912169069961946e-05
2.3423605706873515e-05
3.169076066224089e-05
4.271363393606403e-05
3.720219729915245e-05
3.444647898069667e-05
3.720219729915245e-05
3.444647898069667e-05
3.444647898069667e-05
2.8935042343785094e-05
2.6179324025329308e-05
2.6179324025329308e-05
1.2400732433050376e-05
4.133577477683014e-06
-4.133577477684346e-06
-4.133577477684346e-06
-6.889295796140132e-06
-1.5156450751507488e-05
-2.8935042343786426e-05
-5.6492225528344285e-05
-7.027081712062322e-05
-5.098078889143272e-05
-4.5469352254521147e-05
-4.5469352254521147e-05
-4.8225070572976926e-05
-5.6492225528344285e-05
-5.3736507209888505e-05
-4.8225070572976926e-05
-5.6492225528344285e-05
-6.200366216525588e-05
-6.475938048371164e-05
-5.3736507209888505e-05
-5.9247943846800084e-05
-5.6492225528344285e-05
-5.098078889143272e-05
-4.5469352254521147e-05
-4.5469352254521147e-05
-5.098078889143272e-05
-6.200366216525588e-05
-6.751509880216745e-05
-7.027081712062322e-05
-7.027081712062322e-05
-5.9247943846800084e-05
-5.9247943846800084e-05
-6.751509880216745e-05
-6.475938048371164e-05
-6.200366216525588e-05
-5.3736507209888505e-05
-5.6492225528344285e-05
-6.475938048371164e-05
-5.6492225528344285e-05
-4.8225070572976926e-05
-3.995791561760957e-05
-5.6492225528344285e-05
-6.200366216525588e-05
-3.995791561760957e-05
-3.4446478980697995e-05
-3.169076066224221e-05
-3.720219729915378e-05
-3.169076066224221e-05
-3.169076066224221e-05
-3.4446478980697995e-05
-2.8935042343786426e-05
-1.5156450751507488e-05
-1.7912169069963278e-05
-2.6179324025330647e-05
-3.720219729915378e-05
-2.6179324025330647e-05
-1.240073243305171e-05
-1.5156450751507488e-05
-1.5156450751507488e-05
-1.5156450751507488e-05
-2.066788738841907e-05
-3.169076066224221e-05
-2.6179324025330647e-05
-2.8935042343786426e-05
-3.169076066224221e-05
-2.8935042343786426e-05
-2.8935042343786426e-05
-3.720219729915378e-05
-3.4446478980697995e-05
-2.8935042343786426e-05
-4.2713633936065354e-05
-2.6179324025330647e-05
-1.5156450751507488e-05
-2.342360570687485e-05
-2.6179324025330647e-05
-1.7912169069963278e-05
-1.5156450751507488e-05
-1.7912169069963278e-05
-2.342360570687485e-05
-3.4446478980697995e-05
-1.7912169069963278e-05
4.133577477683014e-06
6.8892957961388014e-06
4.133577477683014e-06
4.133577477683014e-06
-4.133577477684346e-06
-4.133577477684346e-06
-1.377859159228559e-06
-4.133577477684346e-06
-9.64501411459592e-06
-2.066788738841907e-05
-2.8935042343786426e-05
-3.169076066224221e-05
-3.995791561760957e-05
-3.4446478980697995e-05
-3.720219729915378e-05
-3.720219729915378e-05
-3.169076066224221e-05
-4.2713633936065354e-05
-5.098078889143272e-05
-7.027081712062322e-05
-5.6492225528344285e-05
-2.8935042343786426e-05
-3.4446478980697995e-05
-4.5469352254521147e-05
-3.169076066224221e-05
-2.066788738841907e-05
1.7912169069961946e-05
4.546935225451981e-05
5.649222552834297e-05
0.00011711802853437029
0.00029623971923399637
0.0006241701991302349
0.0009631235523002968
0.0011560238345922017
0.0011174437781338207
0.0008942305943389022
0.0005304757763027383
0.00014743093003738393
-5.9247943846800084e-05
-0.00012538518348973897
-0.00012538518348973897
-0.00011160659189746003
-0.00011436231021591582
-0.00011160659189746003
-0.00010058371862363688
-9.231656366826955e-05
-9.507228198672531e-05
-0.00010609515526054846
-0.00011160659189746003
-0.00013089662012665053
-0.00010885087357900426
-8.404940871290214e-05
-8.680512703135793e-05
-8.956084534981374e-05
-9.231656366826955e-05
-8.680512703135793e-05
-8.404940871290214e-05
-8.404940871290214e-05
-8.404940871290214e-05
-8.129369039444639e-05
-7.85379720759906e-05
-7.85379720759906e-05
-6.200366216525588e-05
-5.9247943846800084e-05
-7.85379720759906e-05
-7.85379720759906e-05
-7.85379720759906e-05
-7.57822537575348e-05
-7.57822537575348e-05
-8.129369039444639e-05
-7.027081712062322e-05
-5.9247943846800084e-05
-5.098078889143272e-05
-5.3736507209888505e-05
-5.9247943846800084e-05
-5.098078889143272e-05
-4.8225070572976926e-05
-5.098078889143272e-05
-4.2713633936065354e-05
-4.8225070572976926e-05
-6.751509880216745e-05
-3.720219729915378e-05
-6.889295796140132e-06
-4.133577477684346e-06
1.3778591592272275e-06
9.64501411459459e-06
9.64501411459459e-06
2.066788738841773e-05
3.169076066224089e-05
4.546935225451981e-05
2.8935042343785094e-05
2.6179324025329308e-05
2.6179324025329308e-05
2.3423605706873515e-05
2.3423605706873515e-05
1.7912169069961946e-05
1.2400732433050376e-05
4.133577477683014e-06
1.3778591592272275e-06
-1.240073243305171e-05
-2.066788738841907e-05
-3.4446478980697995e-05
-3.995791561760957e-05
-4.2713633936065354e-05
-5.3736507209888505e-05
-5.9247943846800084e-05
-5.3736507209888505e-05
-5.9247943846800084e-05
-7.57822537575348e-05
-6.751509880216745e-05
-5.6492225528344285e-05
-6.475938048371164e-05
-6.475938048371164e-05
-6.200366216525588e-05
-6.200366216525588e-05
-4.8225070572976926e-05
-5.3736507209888505e-05
-6.475938048371164e-05
-7.027081712062322e-05
-7.57822537575348e-05
-7.302653543907902e-05
-7.85379720759906e-05
-7.57822537575348e-05
-7.85379720759906e-05
-7.85379720759906e-05
-7.027081712062322e-05
-7.027081712062322e-05
-7.302653543907902e-05
-8.680512703135793e-05
-8.956084534981374e-05
-7.027081712062322e-05
-7.027081712062322e-05
-7.302653543907902e-05
-6.751509880216745e-05
-5.9247943846800084e-05
-6.200366216525588e-05
-6.200366216525588e-05
-5.6492225528344285e-05
-4.8225070572976926e-05
-4.8225070572976926e-05
-6.200366216525588e-05
-4.8225070572976926e-05
-3.4446478980697995e-05
-3.169076066224221e-05
-2.066788738841907e-05
-1.7912169069963278e-05
-1.7912169069963278e-05
-1.7912169069963278e-05
-1.7912169069963278e-05
-2.6179324025330647e-05
-3.169076066224221e-05
-3.169076066224221e-05
-2.342360570687485e-05
-1.240073243305171e-05
-2.066788738841907e-05
-2.6179324025330647e-05
-2.066788738841907e-05
-2.066788738841907e-05
-1.7912169069963278e-05
-1.7912169069963278e-05
-2.6179324025330647e-05
-3.4446478980697995e-05
-2.6179324025330647e-05
-2.342360570687485e-05
-2.6179324025330647e-05
-3.169076066224221e-05
-2.6179324025330647e-05
-2.8935042343786426e-05
-3.720219729915378e-05
-4.2713633936065354e-05
-5.6492225528344285e-05
-4.8225070572976926e-05
-2.8935042343786426e-05
-1.7912169069963278e-05
-1.240073243305171e-05
-2.066788738841907e-05
-3.169076066224221e-05
-2.8935042343786426e-05
-2.342360570687485e-05
-2.066788738841907e-05
-2.6179324025330647e-05
-2.8935042343786426e-05
-2.342360570687485e-05
-1.240073243305171e-05
-9.64501411459592e-06
-1.5156450751507488e-05
-1.7912169069963278e-05
-1.5156450751507488e-05
-1.5156450751507488e-05
-1.5156450751507488e-05
-1.5156450751507488e-05
-2.8935042343786426e-05
-4.5469352254521147e-05
-4.2713633936065354e-05
-4.2713633936065354e-05
-4.8225070572976926e-05
-5.098078889143272e-05
-4.5469352254521147e-05
-4.8225070572976926e-05
-4.5469352254521147e-05
-4.2713633936065354e-05
-5.3736507209888505e-05
-7.302653543907902e-05
-6.200366216525588e-05
-4.5469352254521147e-05
-3.995791561760957e-05
-3.995791561760957e-05
-1.7912169069963278e-05
1.2400732433050376e-05
3.169076066224089e-05
0.00010885087357900291
0.000301751155870908
0.0006103916075379561
0.0009631235523002968
0.0011835810177767598
0.001167046707866025
0.0009383220874341949
0.0005718115510795751
0.0001832552681773092
-4.8225070572976926e-05
-0.0001391637750820179
-0.00014191949340047367
-0.00013089662012665053
-0.00011436231021591582
-0.00010333943694209268
-9.507228198672531e-05
-0.00010333943694209268
-0.0001226294651712832
-0.0001226294651712832
-0.00010885087357900426
-0.00010609515526054846
-8.404940871290214e-05
-7.57822537575348e-05
-8.956084534981374e-05
-9.507228198672531e-05
-9.231656366826955e-05
-8.680512703135793e-05
-8.956084534981374e-05
-9.231656366826955e-05
-9.231656366826955e-05
-8.680512703135793e-05
-8.129369039444639e-05
-8.404940871290214e-05
-6.751509880216745e-05
-6.200366216525588e-05
-6.751509880216745e-05
-7.302653543907902e-05
-7.027081712062322e-05
-7.027081712062322e-05
-6.475938048371164e-05
-6.200366216525588e-05
-5.9247943846800084e-05
-5.6492225528344285e-05
-4.8225070572976926e-05
-4.5469352254521147e-05
-3.995791561760957e-05
-5.3736507209888505e-05
-6.200366216525588e-05
-4.5469352254521147e-05
-1.5156450751507488e-05
-1.377859159228559e-06
4.133577477683014e-06
4.133577477683014e-06
9.64501411459459e-06
2.066788738841773e-05
2.8935042343785094e-05
3.169076066224089e-05
2.8935042343785094e-05
2.3423605706873515e-05
3.169076066224089e-05
4.271363393606403e-05
4.271363393606403e-05
4.271363393606403e-05
4.271363393606403e-05
4.546935225451981e-05
4.271363393606403e-05
3.444647898069667e-05
3.169076066224089e-05
3.169076066224089e-05
2.3423605706873515e-05
1.2400732433050376e-05
-4.133577477684346e-06
-2.6179324025330647e-05
-3.169076066224221e-05
-3.4446478980697995e-05
-4.5469352254521147e-05
-2.8935042343786426e-05
-3.4446478980697995e-05
-3.4446478980697995e-05
-4.2713633936065354e-05
-4.2713633936065354e-05
-4.2713633936065354e-05
-4.2713633936065354e-05
-5.098078889143272e-05
-6.200366216525588e-05
-6.751509880216745e-05
-6.475938048371164e-05
-6.751509880216745e-05
-6.200366216525588e-05
-5.9247943846800084e-05
-5.3736507209888505e-05
-5.3736507209888505e-05
-5.3736507209888505e-05
-7.027081712062322e-05
-7.85379720759906e-05
-8.129369039444639e-05
-7.027081712062322e-05
-7.027081712062322e-05
-7.302653543907902e-05
-7.57822537575348e-05
-8.680512703135793e-05
-7.85379720759906e-05
-6.475938048371164e-05
-5.9247943846800084e-05
-5.6492225528344285e-05
-5.3736507209888505e-05
-5.9247943846800084e-05
-5.6492225528344285e-05
-4.8225070572976926e-05
-5.6492225528344285e-05
-5.3736507209888505e-05
-5.3736507209888505e-05
-4.8225070572976926e-05
-4.5469352254521147e-05
-3.995791561760957e-05
-3.995791561760957e-05
-3.995791561760957e-05
-3.4446478980697995e-05
-3.169076066224221e-05
-4.2713633936065354e-05
-4.5469352254521147e-05
-3.4446478980697995e-05
-2.6179324025330647e-05
-2.6179324025330647e-05
-2.6179324025330647e-05
-2.8935042343786426e-05
-2.342360570687485e-05
-1.7912169069963278e-05
-2.6179324025330647e-05
-2.8935042343786426e-05
-4.8225070572976926e-05
-5.9247943846800084e-05
-3.720219729915378e-05
-3.4446478980697995e-05
-3.169076066224221e-05
-3.169076066224221e-05
-3.4446478980697995e-05
-2.8935042343786426e-05
-2.066788738841907e-05
-1.240073243305171e-05
-2.342360570687485e-05
-1.7912169069963278e-05
-2.6179324025330647e-05
-3.169076066224221e-05
-2.342360570687485e-05
-2.066788738841907e-05
-2.342360570687485e-05
-1.240073243305171e-05
-6.889295796140132e-06
-1.240073243305171e-05
-1.5156450751507488e-05
-6.889295796140132e-06
-6.889295796140132e-06
-6.889295796140132e-06
-6.889295796140132e-06
-4.133577477684346e-06
-9.64501411459592e-06
-1.7912169069963278e-05
-4.2713633936065354e-05
-3.995791561760957e-05
-3.4446478980697995e-05
-3.169076066224221e-05
-2.6179324025330647e-05
-1.7912169069963278e-05
-2.6179324025330647e-05
-3.720219729915378e-05
-3.720219729915378e-05
-3.4446478980697995e-05
-3.4446478980697995e-05
-4.2713633936065354e-05
-4.2713633936065354e-05
-4.8225070572976926e-05
-5.098078889143272e-05
-3.995791561760957e-05
-3.720219729915378e-05
-2.342360570687485e-05
6.8892957961388014e-06
3.720219729915245e-05
8.404940871290084e-05
0.00023285819790951333
0.0005332314946211942
0.0009272992141603715
0.0012524739757381546
0.0013571912718394743
0.0012028710460059502
0.0008611619745174325
0.0004009570153353164
4.271363393606403e-05
-0.0001226294651712832
-0.0001584538033112084
-0.00014191949340047367
-0.00012538518348973897
-0.00010609515526054846
-9.78280003051811e-05
-0.00010058371862363688
-0.00010333943694209268
-9.78280003051811e-05
-8.956084534981374e-05
-9.507228198672531e-05
-0.00010609515526054846
-0.00010058371862363688
-0.00010058371862363688
-0.00011160659189746003
-0.00010885087357900426
-9.78280003051811e-05
-9.78280003051811e-05
-8.680512703135793e-05
