-0.00012538518348973897
-0.00013089662012665053
-0.00012814090180819475
-0.00012814090180819475
-0.00014191949340047367
-0.00015569808499275262
-0.00015569808499275262
-0.00015569808499275262
-0.00016672095826657574
-0.00018325526817731047
-0.00018601098649576628
-0.00018601098649576628
-0.00018049954985885472
-0.00016672095826657574
-9.507228198672531e-05
0.00010609515526054714
0.000456071381704432
0.0009162763408865484
0.0013737255817502093
0.0017099232166018147
0.0018725105973907065
0.001806373357747768
0.0014729314412146172
0.000908009185931181
2.8935042343785094e-05
-0.0006462159456778825
-0.0006737731288624405
-0.0005249643396658282
-0.0004257584802014197
-0.00036788839551384826
-0.0003320640573739229
-0.0002989954375524536
-0.00027419397268635144
-0.0002631710994125282
-0.0002631710994125282
-0.00026592681773098404
-0.0002631710994125282
-0.0002466367895017936
-0.00023010247959105888
-0.00023010247959105888
-0.00023010247959105888
-0.0002190796063172357
-0.0002108124513618684
-0.0001997895780880452
-0.00019427814145113364
-0.00019703385976958942
-0.00019703385976958942
-0.00018876670481422206
-0.00017498811322194308
-0.00016947667658503157
-0.00017223239490348733
-0.00016947667658503157
-0.00016396523994811996
-0.000150186648355841
-0.00014467521171892948
-0.00014467521171892948
-0.00014467521171892948
-0.0001391637750820179
-0.00013089662012665053
-0.0001226294651712832
-0.0001198737468528274
-0.0001198737468528274
-0.0001171180285343716
-0.00010885087357900426
-9.507228198672531e-05
-8.680512703135793e-05
-8.404940871290214e-05
-6.751509880216745e-05
-4.5469352254521147e-05
-1.7912169069963278e-05
1.3778591592272275e-06
9.64501411459459e-06
2.066788738841773e-05
6.200366216525454e-05
6.475938048371032e-05
5.649222552834297e-05
3.9957915617608246e-05
2.8935042343785094e-05
2.6179324025329308e-05
1.2400732433050376e-05
-6.889295796140132e-06
-2.8935042343786426e-05
-5.098078889143272e-05
-6.200366216525588e-05
-7.57822537575348e-05
-0.00010058371862363688
-0.0001226294651712832
-0.0001364080567635621
-0.0001391637750820179
-0.0001391637750820179
-0.00014743093003738526
-0.0001612095216296642
-0.00016947667658503157
-0.00016672095826657574
-0.00016396523994811996
-0.00016672095826657574
-0.0001777438315403989
-0.00018876670481422206
-0.00019427814145113364
-0.00019152242313267784
-0.00018876670481422206
-0.00019427814145113364
-0.0001997895780880452
-0.00019152242313267784
-0.00017223239490348733
-0.00015294236667429682
-0.00014467521171892948
-0.0001391637750820179
-0.0001336523384451063
-0.00012538518348973897
-0.00010609515526054846
-9.231656366826955e-05
-8.404940871290214e-05
-7.027081712062322e-05
-5.6492225528344285e-05
-4.5469352254521147e-05
-4.5469352254521147e-05
-5.3736507209888505e-05
-6.200366216525588e-05
-6.751509880216745e-05
-6.475938048371164e-05
-6.751509880216745e-05
-8.680512703135793e-05
-0.00010885087357900426
-0.0001198737468528274
-0.00012538518348973897
-0.0001391637750820179
-0.00016396523994811996
-0.0001777438315403989
-0.00018049954985885472
-0.0001777438315403989
-0.0001777438315403989
-0.00018601098649576628
-0.00019152242313267784
-0.00019703385976958942
-0.00018876670481422206
-0.00018325526817731047
-0.00018876670481422206
-0.00020530101472495681
-0.00021356816968032413
-0.00021356816968032413
-0.0001997895780880452
-8.129369039444639e-05
0.00014743093003738393
0.0005222086213473709
0.000985169298847943
0.0014178170748455018
0.0017237018081940941
0.0018587320057984274
0.001759526146334019
0.0013902598916609437
0.0007619561150530243
-0.00014743093003738526
-0.0006958188754100868
-0.0006517273823147941
-0.0005166971847104609
-0.0004257584802014197
-0.000370644113832304
-0.0003375754940108345
-0.0003100183108262768
-0.0002852168459601746
-0.00027143825436789566
-0.0002686825360494398
-0.00027143825436789566
-0.00026592681773098404
-0.0002549039444571609
-0.00024112535286488197
-0.00024112535286488197
-0.00024388107118333775
-0.00024112535286488197
-0.00023285819790951464
-0.0002190796063172357
-0.00021356816968032413
-0.00021632388799877996
-0.00021632388799877996
-0.0002108124513618684
-0.00019703385976958942
-0.00018876670481422206
-0.00019152242313267784
-0.00019703385976958942
-0.00019152242313267784
-0.00018049954985885472
-0.00017498811322194308
-0.00017498811322194308
-0.00018049954985885472
-0.0001777438315403989
-0.00017223239490348733
-0.00016396523994811996
-0.00016396523994811996
-0.00016947667658503157
-0.00016947667658503157
-0.00016672095826657574
-0.0001584538033112084
-0.00015294236667429682
-0.00015569808499275262
-0.00015294236667429682
-0.0001364080567635621
-0.0001198737468528274
-0.00010609515526054846
-0.00010333943694209268
-9.78280003051811e-05
-8.404940871290214e-05
-6.751509880216745e-05
-6.475938048371164e-05
-7.302653543907902e-05
-8.680512703135793e-05
-8.956084534981374e-05
-8.680512703135793e-05
-9.231656366826955e-05
-0.00010609515526054846
-0.0001226294651712832
-0.0001198737468528274
-0.00011436231021591582
-0.00011436231021591582
-0.0001171180285343716
-0.00011436231021591582
-0.00011160659189746003
-0.00011436231021591582
-0.00011436231021591582
-0.0001171180285343716
-0.0001171180285343716
-0.0001171180285343716
-0.00010885087357900426
-0.00011160659189746003
-0.00012538518348973897
-0.0001364080567635621
-0.00014191949340047367
-0.0001391637750820179
-0.0001364080567635621
-0.0001391637750820179
-0.00014467521171892948
-0.00014467521171892948
-0.00014191949340047367
-0.0001364080567635621
-0.00014191949340047367
-0.000150186648355841
-0.00015294236667429682
-0.00014467521171892948
-0.0001364080567635621
-0.0001336523384451063
-0.00014191949340047367
-0.00014191949340047367
-0.00012814090180819475
-0.0001171180285343716
-0.0001171180285343716
-0.00012538518348973897
-0.0001336523384451063
-0.00013089662012665053
-0.0001226294651712832
-0.0001171180285343716
-0.00010333943694209268
-4.8225070572976926e-05
9.23165636682682e-05
0.00035135408560311223
0.0006958188754100854
0.0011064209048599978
0.001453641412985427
0.0016217402304112296
0.0015445801174944675
0.0011560238345922017
0.0005883458609903097
-0.00012538518348973897
-0.0006903074387731753
-0.0007178646219577333
-0.0005525215228503861
-0.000447804226749066
-0.000370644113832304
-0.00030726259250782084
-0.0002549039444571609
-0.00021632388799877996
-0.0002080567330434125
-0.00021356816968032413
-0.00021356816968032413
-0.0002080567330434125
-0.00019427814145113364
-0.00018325526817731047
-0.00018876670481422206
-0.00018601098649576628
-0.00015569808499275262
-0.00014191949340047367
-0.00014191949340047367
-0.00014467521171892948
-0.0001336523384451063
-0.0001198737468528274
-0.00010885087357900426
-0.00010885087357900426
-0.00011160659189746003
-0.00010609515526054846
-8.956084534981374e-05
-7.85379720759906e-05
-7.57822537575348e-05
-7.85379720759906e-05
-7.302653543907902e-05
-6.200366216525588e-05
-4.8225070572976926e-05
-4.2713633936065354e-05
-4.2713633936065354e-05
-3.995791561760957e-05
-2.6179324025330647e-05
-9.64501411459592e-06
9.64501411459459e-06
1.7912169069961946e-05
2.8935042343785094e-05
5.373650720988717e-05
8.68051270313566e-05
0.00010885087357900291
0.00011711802853437029
0.0001253851834897376
0.00013916377508201656
0.00014467521171892812
0.00014467521171892812
0.00013640805676356078
0.00012262946517128183
0.00010885087357900291
0.00010058371862363556
8.956084534981241e-05
6.475938048371032e-05
3.444647898069667e-05
9.64501411459459e-06
-4.133577477684346e-06
-1.5156450751507488e-05
-3.4446478980697995e-05
-5.6492225528344285e-05
-7.302653543907902e-05
-7.85379720759906e-05
-7.85379720759906e-05
-7.85379720759906e-05
-8.680512703135793e-05
-9.507228198672531e-05
-9.78280003051811e-05
-9.231656366826955e-05
-8.956084534981374e-05
-9.507228198672531e-05
-0.00010333943694209268
-0.00010609515526054846
-0.00010058371862363688
-9.78280003051811e-05
-0.00010333943694209268
-0.00011160659189746003
-0.00011160659189746003
-0.00010333943694209268
-9.78280003051811e-05
-0.00010333943694209268
-0.00011160659189746003
-0.0001171180285343716
-0.00011436231021591582
-0.00010609515526054846
-0.00011160659189746003
-0.0001226294651712832
-0.0001226294651712832
-0.0001171180285343716
-0.0001198737468528274
-0.00012814090180819475
-0.0001364080567635621
-0.0001364080567635621
-0.00013089662012665053
-0.00013089662012665053
-0.0001364080567635621
-0.0001336523384451063
-0.0001198737468528274
-0.00010333943694209268
-9.231656366826955e-05
-9.507228198672531e-05
-0.00010609515526054846
-0.00010885087357900426
-9.231656366826955e-05
-7.027081712062322e-05
-5.6492225528344285e-05
-5.098078889143272e-05
-5.6492225528344285e-05
-5.3736507209888505e-05
-5.098078889143272e-05
-5.9247943846800084e-05
-7.57822537575348e-05
-8.680512703135793e-05
-8.404940871290214e-05
-8.129369039444639e-05
-8.956084534981374e-05
-0.00011160659189746003
-0.0001336523384451063
-0.00014743093003738526
-0.00014467521171892948
-0.0001391637750820179
-0.00014467521171892948
-0.00015569808499275262
-0.0001584538033112084
-0.00014743093003738526
-0.00014191949340047367
-0.00014743093003738526
-0.0001584538033112084
-0.0001584538033112084
-0.00015569808499275262
-0.0001612095216296642
-0.00016947667658503157
-0.00017223239490348733
-0.00016672095826657574
-0.00010609515526054846
7.30265354390777e-05
0.00037615555046921414
0.000806047608148317
0.001318611215381093
0.0017760604562447539
0.002048876569771877
0.0020350979781795973
0.001671343160143434
0.001048550820172426
0.0001556980849927513
-0.0005828344243533996
-0.0006599945372701616
-0.0005249643396658282
-0.000447804226749066
-0.0003844227054245829
-0.00032655262073701135
-0.00029072828259708617
-0.00027143825436789566
-0.00026592681773098404
-0.00025765966277561676
-0.00024388107118333775
-0.00024388107118333775
-0.0002466367895017936
-0.0002466367895017936
-0.00023285819790951464
-0.0002190796063172357
-0.0002080567330434125
-0.00021356816968032413
-0.00021356816968032413
-0.00020530101472495681
-0.00019152242313267784
-0.00018601098649576628
-0.00018876670481422206
-0.00019427814145113364
-0.00018876670481422206
-0.00018049954985885472
-0.00017498811322194308
-0.00017498811322194308
-0.0001777438315403989
-0.00017498811322194308
-0.00016396523994811996
-0.00015569808499275262
-0.0001584538033112084
-0.00016396523994811996
-0.00016672095826657574
-0.00015569808499275262
-0.00014743093003738526
-0.00014743093003738526
-0.00015569808499275262
-0.00015294236667429682
-0.00014467521171892948
-0.0001336523384451063
-0.00013089662012665053
-0.0001364080567635621
-0.0001364080567635621
-0.00012538518348973897
-0.00011160659189746003
-0.00010333943694209268
-0.00010885087357900426
-0.00011160659189746003
-0.00011160659189746003
-0.00010885087357900426
-0.00010609515526054846
-0.0001198737468528274
-0.00013089662012665053
-0.0001336523384451063
-0.0001198737468528274
-0.00011160659189746003
-0.00011160659189746003
-0.00011436231021591582
-0.0001171180285343716
-0.00011160659189746003
-0.00010609515526054846
-0.00011160659189746003
-0.00012538518348973897
-0.00013089662012665053
-0.00012538518348973897
-0.0001171180285343716
-0.0001226294651712832
-0.00012814090180819475
-0.0001364080567635621
-0.00013089662012665053
-0.00012538518348973897
-0.0001226294651712832
-0.00012538518348973897
-0.00012814090180819475
-0.00011160659189746003
-9.507228198672531e-05
-8.680512703135793e-05
-7.85379720759906e-05
-6.200366216525588e-05
-4.5469352254521147e-05
-3.169076066224221e-05
-2.6179324025330647e-05
-2.8935042343786426e-05
-1.5156450751507488e-05
9.64501411459459e-06
3.720219729915245e-05
5.098078889143139e-05
3.9957915617608246e-05
3.720219729915245e-05
3.9957915617608246e-05
4.271363393606403e-05
3.444647898069667e-05
1.5156450751506162e-05
4.133577477683014e-06
-1.377859159228559e-06
-1.240073243305171e-05
-2.342360570687485e-05
-4.8225070572976926e-05
-7.302653543907902e-05
-9.231656366826955e-05
-9.507228198672531e-05
-9.78280003051811e-05
-0.00010885087357900426
-0.0001226294651712832
-0.00012814090180819475
-0.0001226294651712832
-0.0001171180285343716
-0.00012538518348973897
-0.0001391637750820179
-0.00014743093003738526
-0.00014467521171892948
-0.00014743093003738526
-0.0001612095216296642
-0.00018325526817731047
-0.0001997895780880452
-0.00014191949340047367
5.373650720988717e-05
0.0003844227054245816
0.0008446276646066979
0.00135994699015793
0.0017705490196078426
0.0019634493018997477
0.001822907667658502
0.001335145525291828
0.000679284565499351
-0.00014191949340047367
-0.00065448310063325
-0.000615903044174869
-0.00048362856488899143
-0.00040922417029068495
-0.0003485983672846577
-0.0002962397192339978
-0.0002549039444571609
-0.00023836963454642628
-0.00024112535286488197
-0.00024112535286488197
-0.00023285819790951464
-0.0002190796063172357
-0.00021356816968032413
-0.00021356816968032413
-0.0002108124513618684
-0.00019427814145113364
-0.00017498811322194308
-0.0001777438315403989
-0.00017498811322194308
-0.00016947667658503157
-0.00015294236667429682
-0.00014191949340047367
-0.00014467521171892948
-0.00014743093003738526
-0.00014191949340047367
-0.00012814090180819475
-0.0001171180285343716
-0.0001171180285343716
-0.0001198737468528274
-0.00011160659189746003
-0.00010058371862363688
-9.231656366826955e-05
-9.231656366826955e-05
-9.231656366826955e-05
-8.956084534981374e-05
-7.85379720759906e-05
-6.751509880216745e-05
-5.9247943846800084e-05
-5.6492225528344285e-05
-5.098078889143272e-05
-3.4446478980697995e-05
-1.5156450751507488e-05
-1.377859159228559e-06
9.64501411459459e-06
2.6179324025329308e-05
5.098078889143139e-05
7.30265354390777e-05
8.404940871290084e-05
7.853797207598924e-05
7.02708171206219e-05
6.475938048371032e-05
6.200366216525454e-05
5.373650720988717e-05
3.720219729915245e-05
1.7912169069961946e-05
6.8892957961388014e-06
-1.377859159228559e-06
-6.889295796140132e-06
-2.6179324025330647e-05
-5.3736507209888505e-05
-7.302653543907902e-05
-8.129369039444639e-05
-8.956084534981374e-05
-0.00010333943694209268
-0.0001198737468528274
-0.00013089662012665053
-0.0001336523384451063
-0.0001364080567635621
-0.00014191949340047367
-0.00015569808499275262
-0.00016396523994811996
-0.00016396523994811996
-0.0001612095216296642
-0.00015569808499275262
-0.0001612095216296642
-0.00016672095826657574
-0.00015569808499275262
-0.0001364080567635621
-0.0001171180285343716
-0.00010333943694209268
-9.78280003051811e-05
-8.680512703135793e-05
-7.57822537575348e-05
-6.475938048371164e-05
-5.6492225528344285e-05
-2.6179324025330647e-05
-1.377859159228559e-06
1.2400732433050376e-05
4.133577477683014e-06
-4.133577477684346e-06
-9.64501411459592e-06
-1.240073243305171e-05
-1.5156450751507488e-05
-1.7912169069963278e-05
-3.169076066224221e-05
-5.6492225528344285e-05
-6.751509880216745e-05
-7.302653543907902e-05
-8.680512703135793e-05
-0.00011160659189746003
-0.00013089662012665053
-0.0001336523384451063
-0.00012814090180819475
-0.00012814090180819475
-0.0001391637750820179
-0.00014743093003738526
-0.000150186648355841
-0.00014467521171892948
-0.0001391637750820179
-0.00014743093003738526
-0.0001584538033112084
-0.00016947667658503157
-0.00017498811322194308
-0.00017498811322194308
-0.00018601098649576628
-0.00018049954985885472
-7.027081712062322e-05
0.00019427814145113231
0.0006021244525825888
0.0011174437781338207
0.0016244959487296858
0.0019662050202182034
0.0020571437247272444
0.0017898390478370328
0.0012331839475089635
0.0004726056916151668
-0.0003816669871061273
-0.0006792845654993521
-0.0005607886778057534
-0.00044504850843061025
-0.0003816669871061273
-0.0003348197756923787
-0.00030175115587090934
-0.00027143825436789566
-0.0002466367895017936
-0.00024388107118333775
-0.00024939250782024937
-0.0002466367895017936
-0.00023285819790951464
-0.0002190796063172357
-0.00021356816968032413
-0.00021632388799877996
-0.00021632388799877996
-0.00020254529640650095
-0.00018876670481422206
-0.00018049954985885472
-0.00018601098649576628
-0.00018601098649576628
-0.00017498811322194308
-0.0001612095216296642
-0.00015294236667429682
-0.00015569808499275262
-0.0001584538033112084
-0.00014467521171892948
-0.0001336523384451063
-0.0001336523384451063
-0.0001391637750820179
-0.0001364080567635621
-0.00012538518348973897
-0.0001171180285343716
-0.00011436231021591582
-0.0001198737468528274
-0.0001198737468528274
-0.00010885087357900426
-9.507228198672531e-05
-8.956084534981374e-05
-8.956084534981374e-05
-8.680512703135793e-05
-7.302653543907902e-05
-5.3736507209888505e-05
-3.4446478980697995e-05
-2.6179324025330647e-05
-1.7912169069963278e-05
-4.133577477684346e-06
1.2400732433050376e-05
2.066788738841773e-05
1.2400732433050376e-05
-1.377859159228559e-06
-4.133577477684346e-06
-6.889295796140132e-06
-6.889295796140132e-06
-2.066788738841907e-05
-3.4446478980697995e-05
-4.2713633936065354e-05
-4.5469352254521147e-05
-5.098078889143272e-05
-6.751509880216745e-05
-8.680512703135793e-05
-9.78280003051811e-05
-9.78280003051811e-05
-9.231656366826955e-05
-8.956084534981374e-05
-9.231656366826955e-05
-9.231656366826955e-05
-8.956084534981374e-05
-9.231656366826955e-05
-9.78280003051811e-05
-0.00010609515526054846
-0.00011436231021591582
-0.0001171180285343716
-0.00011436231021591582
-0.00010609515526054846
-0.00011436231021591582
-0.0001198737468528274
-0.0001198737468528274
-0.00011436231021591582
-0.00010058371862363688
-9.507228198672531e-05
-8.956084534981374e-05
-8.404940871290214e-05
-7.57822537575348e-05
-7.027081712062322e-05
-7.027081712062322e-05
-7.302653543907902e-05
-7.85379720759906e-05
-7.302653543907902e-05
-6.751509880216745e-05
-7.027081712062322e-05
-8.129369039444639e-05
-8.680512703135793e-05
-8.404940871290214e-05
-8.680512703135793e-05
-9.78280003051811e-05
-0.00010609515526054846
-0.00011160659189746003
-0.0001171180285343716
-0.00012814090180819475
-0.00014467521171892948
-0.00016672095826657574
-0.00010609515526054846
9.782800030517979e-05
0.000456071381704432
0.000960367833981841
0.0014701757228961615
0.0018284191042954136
0.0019441592736705567
0.0016851217517357133
0.0011229552147707324
0.00041197988860913943
-0.00036237695887693665
-0.0006627502555886173
-0.0005442543678950186
-0.000423002761882964
-0.00036237695887693665
-0.00030175115587090934
-0.00024939250782024937
-0.0002108124513618684
-0.0001997895780880452
-0.0002080567330434125
-0.0002108124513618684
-0.0002080567330434125
-0.00019152242313267784
-0.00018049954985885472
-0.00018049954985885472
-0.00017498811322194308
-0.00016672095826657574
-0.00015294236667429682
-0.0001336523384451063
-0.0001336523384451063
-0.0001364080567635621
-0.0001336523384451063
-0.0001226294651712832
-0.00011160659189746003
-0.00010885087357900426
-0.00010885087357900426
-0.00010885087357900426
-0.00010058371862363688
-8.956084534981374e-05
-8.129369039444639e-05
-8.404940871290214e-05
-8.129369039444639e-05
-7.57822537575348e-05
-6.475938048371164e-05
-5.6492225528344285e-05
-5.9247943846800084e-05
-5.6492225528344285e-05
-4.5469352254521147e-05
-3.4446478980697995e-05
-2.066788738841907e-05
-1.240073243305171e-05
-6.889295796140132e-06
9.64501411459459e-06
3.444647898069667e-05
5.649222552834297e-05
7.30265354390777e-05
8.404940871290084e-05
9.507228198672396e-05
0.00010885087357900291
0.00011711802853437029
9.782800030517979e-05
8.68051270313566e-05
8.404940871290084e-05
8.129369039444505e-05
7.02708171206219e-05
4.82250705729756e-05
2.066788738841773e-05
1.3778591592272275e-06
-1.5156450751507488e-05
-3.995791561760957e-05
-6.751509880216745e-05
-9.231656366826955e-05
-0.00010609515526054846
-0.00011160659189746003
-0.00011436231021591582
-0.00012814090180819475
-0.0001364080567635621
-0.0001391637750820179
-0.00013089662012665053
-0.0001198737468528274
-0.00012538518348973897
-0.00012814090180819475
-0.00012814090180819475
-0.00011436231021591582
-0.00010333943694209268
-0.00010609515526054846
-0.00010609515526054846
-0.00010333943694209268
-9.231656366826955e-05
-7.85379720759906e-05
-7.302653543907902e-05
-7.85379720759906e-05
-8.129369039444639e-05
-7.85379720759906e-05
-7.302653543907902e-05
-7.302653543907902e-05
-8.129369039444639e-05
-8.956084534981374e-05
-9.231656366826955e-05
-8.956084534981374e-05
-8.404940871290214e-05
-8.404940871290214e-05
-8.404940871290214e-05
-7.85379720759906e-05
-6.475938048371164e-05
-5.3736507209888505e-05
-5.9247943846800084e-05
-7.027081712062322e-05
-7.027081712062322e-05
-5.098078889143272e-05
-2.6179324025330647e-05
-1.240073243305171e-05
-2.066788738841907e-05
-3.169076066224221e-05
-2.8935042343786426e-05
-2.6179324025330647e-05
-3.720219729915378e-05
-5.3736507209888505e-05
-6.475938048371164e-05
-6.475938048371164e-05
-7.027081712062322e-05
-7.57822537575348e-05
-9.231656366826955e-05
-0.0001171180285343716
-0.00013089662012665053
-0.00013089662012665053
-0.00012814090180819475
-0.0001391637750820179
-0.00014467521171892948
-0.0001336523384451063
-0.00013089662012665053
-0.0001391637750820179
-0.00014743093003738526
-0.00015294236667429682
-0.000150186648355841
-0.000150186648355841
-0.0001612095216296642
-0.00016947667658503157
-0.00015569808499275262
-6.751509880216745e-05
0.0001556980849927513
0.0005194529030289152
0.0010044593270771337
0.0015225343709468217
0.0019744721751735706
0.0022417768520637815
0.0022142196688792236
0.001806373357747768
0.0011119323414969095
0.0001253851834897376
-0.0005993687342641343
-0.000615903044174869
-0.00048638428320744705
-0.0004202470435645082
-0.0003651326771953924
-0.0003127740291447324
-0.00027419397268635144
-0.0002549039444571609
-0.0002521482261387052
-0.0002549039444571609
-0.00024388107118333775
-0.00023285819790951464
-0.00022734676127260308
-0.00023010247959105888
-0.00022734676127260308
-0.00021632388799877996
-0.00020254529640650095
-0.00019703385976958942
-0.0001997895780880452
-0.0001997895780880452
-0.00018876670481422206
-0.00017498811322194308
-0.00017223239490348733
-0.0001777438315403989
-0.00018049954985885472
-0.00017223239490348733
-0.00016396523994811996
-0.00015569808499275262
-0.0001612095216296642
-0.00016672095826657574
-0.0001612095216296642
-0.000150186648355841
-0.0001391637750820179
-0.00014191949340047367
-0.00014743093003738526
-0.00014467521171892948
-0.0001364080567635621
-0.00013089662012665053
-0.00013089662012665053
-0.00013089662012665053
-0.0001336523384451063
-0.0001226294651712832
-0.00011160659189746003
-0.00010058371862363688
-0.00010333943694209268
-9.78280003051811e-05
-7.85379720759906e-05
-3.995791561760957e-05
-3.720219729915378e-05
-3.995791561760957e-05
-3.720219729915378e-05
-3.169076066224221e-05
-2.8935042343786426e-05
-3.995791561760957e-05
-5.6492225528344285e-05
-6.475938048371164e-05
-5.9247943846800084e-05
-5.9247943846800084e-05
-7.027081712062322e-05
-8.404940871290214e-05
-9.231656366826955e-05
-9.231656366826955e-05
-9.231656366826955e-05
-9.78280003051811e-05
-0.00010885087357900426
-0.00011160659189746003
-0.00010609515526054846
-9.78280003051811e-05
-0.00010058371862363688
-0.00010609515526054846
-0.00010885087357900426
-0.00010609515526054846
-0.00010058371862363688
-0.00010058371862363688
-0.00011436231021591582
-0.00012538518348973897
-0.0001226294651712832
-0.00010885087357900426
-9.507228198672531e-05
-8.956084534981374e-05
-8.404940871290214e-05
-7.027081712062322e-05
-5.9247943846800084e-05
-5.098078889143272e-05
-4.2713633936065354e-05
-2.8935042343786426e-05
-1.240073243305171e-05
6.8892957961388014e-06
2.8935042343785094e-05
2.6179324025329308e-05
1.7912169069961946e-05
1.7912169069961946e-05
2.066788738841773e-05
2.6179324025329308e-05
2.3423605706873515e-05
1.5156450751506162e-05
-4.133577477684346e-06
-1.7912169069963278e-05
-2.6179324025330647e-05
-3.720219729915378e-05
-6.200366216525588e-05
-8.956084534981374e-05
-0.00010058371862363688
-9.507228198672531e-05
-9.507228198672531e-05
-0.00010609515526054846
-0.0001171180285343716
-0.0001226294651712832
-0.0001198737468528274
-0.0001198737468528274
-0.00012538518348973897
-0.0001364080567635621
-0.00014743093003738526
-0.00015569808499275262
-0.00015569808499275262
-0.00014743093003738526
-6.200366216525588e-05
0.0001694766765850302
0.0005387429312581057
0.001007215045395589
0.0014619085679407943
0.0017788161745632097
0.0019221135271229105
0.0018146405127031347
0.0014343513847562366
0.0008280933546959632
-7.302653543907902e-05
-0.00065448310063325
-0.0006214144808117806
-0.0004781171282520797
-0.00039268986037995033
-0.0003403312123292903
-0.00030175115587090934
-0.0002604153810940725
-0.00023561391622797047
-0.00023561391622797047
-0.00024388107118333775
-0.00023836963454642628
-0.00022459104295414727
-0.0002080567330434125
-0.00020254529640650095
-0.0002080567330434125
-0.00020530101472495681
-0.00019427814145113364
-0.0001777438315403989
-0.00017223239490348733
-0.00017223239490348733
-0.00017223239490348733
-0.0001612095216296642
-0.00014743093003738526
-0.0001364080567635621
-0.0001391637750820179
-0.0001391637750820179
-0.0001336523384451063
-0.00012538518348973897
-0.00011160659189746003
-0.00011160659189746003
-0.00011436231021591582
-0.00011436231021591582
-0.00010609515526054846
-9.507228198672531e-05
-9.231656366826955e-05
-9.507228198672531e-05
-9.507228198672531e-05
-8.404940871290214e-05
-6.475938048371164e-05
-5.6492225528344285e-05
-5.6492225528344285e-05
-5.098078889143272e-05
-3.169076066224221e-05
-6.889295796140132e-06
1.7912169069961946e-05
3.169076066224089e-05
4.546935225451981e-05
7.02708171206219e-05
9.23165636682682e-05
0.00010333943694209132
9.507228198672396e-05
8.68051270313566e-05
7.853797207598924e-05
7.578225375753347e-05
6.475938048371032e-05
4.546935225451981e-05
2.3423605706873515e-05
-9.64501411459592e-06
-2.066788738841907e-05
-3.995791561760957e-05
-6.751509880216745e-05
-8.956084534981374e-05
-9.78280003051811e-05
-0.00010058371862363688
-0.00010885087357900426
-0.00012538518348973897
-0.0001391637750820179
-0.0001391637750820179
-0.0001364080567635621
-0.0001391637750820179
-0.000150186648355841
-0.00016396523994811996
-0.00016947667658503157
-0.00016672095826657574
-0.00016947667658503157
-0.00017498811322194308
-0.00018049954985885472
-0.00017498811322194308
-0.00015569808499275262
-0.0001336523384451063
-0.0001198737468528274
-0.00011436231021591582
-0.00011436231021591582
-0.00010333943694209268
-8.129369039444639e-05
-6.475938048371164e-05
-5.098078889143272e-05
-3.720219729915378e-05
-2.342360570687485e-05
-1.5156450751507488e-05
-1.5156450751507488e-05
-2.066788738841907e-05
-2.8935042343786426e-05
-3.169076066224221e-05
-2.8935042343786426e-05
-3.169076066224221e-05
-5.3736507209888505e-05
-7.57822537575348e-05
-8.404940871290214e-05
-8.680512703135793e-05
-0.00010333943694209268
-0.00012538518348973897
-0.0001391637750820179
-0.00014467521171892948
-0.0001391637750820179
-0.0001336523384451063
-0.00014191949340047367
-0.00015569808499275262
-0.0001612095216296642
-0.0001584538033112084
-0.00015294236667429682
-0.0001584538033112084
-0.00017223239490348733
-0.0001777438315403989
-0.00017498811322194308
-0.00015569808499275262
-0.00011160659189746003
1.2400732433050376e-05
0.0002741939726863501
0.0006627502555886161
0.0011146880598153653
0.0015197786526283655
0.0017843276112001212
0.001864243442435339
0.0017016560616464477
0.0005773229877164866
-0.00032655262073701135
-0.0006847960021362637
-0.0005828344243533996
-0.00045882710002288904
-0.00037615555046921565
-0.00032379690241855563
-0.00029072828259708617
-0.00026592681773098404
-0.00024388107118333775
-0.00023285819790951464
-0.00023285819790951464
-0.00023836963454642628
-0.00023836963454642628
-0.00022459104295414727
-0.0002080567330434125
-0.0001997895780880452
-0.00020530101472495681
-0.00020530101472495681
-0.00019427814145113364
-0.00018049954985885472
-0.00017223239490348733
-0.00017498811322194308
-0.00018325526817731047
-0.0001777438315403989
-0.0001612095216296642
-0.000150186648355841
-0.00015294236667429682
-0.0001612095216296642
-0.00015569808499275262
-0.00014191949340047367
-0.0001364080567635621
-0.0001391637750820179
-0.00014467521171892948
-0.00014467521171892948
-0.0001391637750820179
-0.00012814090180819475
-0.00012538518348973897
-0.0001336523384451063
-0.0001364080567635621
-0.00012814090180819475
-0.0001171180285343716
-0.00011160659189746003
-0.00011160659189746003
-0.00010609515526054846
-9.507228198672531e-05
-7.85379720759906e-05
-5.9247943846800084e-05
-5.098078889143272e-05
-4.8225070572976926e-05
-3.720219729915378e-05
-2.066788738841907e-05
-1.5156450751507488e-05
-2.6179324025330647e-05
-3.720219729915378e-05
-4.2713633936065354e-05
-3.720219729915378e-05
-3.995791561760957e-05
-5.6492225528344285e-05
-7.302653543907902e-05
-8.404940871290214e-05
-8.404940871290214e-05
-8.404940871290214e-05
-9.231656366826955e-05
-0.00010333943694209268
-0.00010058371862363688
-8.956084534981374e-05
-7.027081712062322e-05
-7.85379720759906e-05
-8.956084534981374e-05
-8.404940871290214e-05
-7.85379720759906e-05
-7.85379720759906e-05
-9.231656366826955e-05
-0.00010333943694209268
-0.00010609515526054846
-0.00010058371862363688
-0.00010058371862363688
-0.00011436231021591582
-0.0001171180285343716
-0.00011160659189746003
-0.00010333943694209268
-0.00010058371862363688
-0.00010333943694209268
-0.00011160659189746003
-0.00011160659189746003
-0.00010609515526054846
-9.231656366826955e-05
-9.231656366826955e-05
-9.507228198672531e-05
-9.78280003051811e-05
-9.231656366826955e-05
-7.85379720759906e-05
-7.57822537575348e-05
-8.404940871290214e-05
-8.956084534981374e-05
-8.129369039444639e-05
-7.302653543907902e-05
-7.85379720759906e-05
-9.231656366826955e-05
-0.00010333943694209268
-9.78280003051811e-05
-7.027081712062322e-05
1.7912169069961946e-05
0.0002190796063172344
0.0005359872129396498
0.000971390707255664
0.001401282764934767
0.0016740988784618896
0.001696144625009536
0.0013737255817502093
0.0008336047913328749
0.00016120952162966288
-0.0005139414663920051
-0.0006792845654993521
-0.0005414986495765627
-0.000423002761882964
-0.0003348197756923787
-0.0002631710994125282
-0.00021632388799877996
-0.00019152242313267784
-0.00018325526817731047
-0.00017498811322194308
-0.00016672095826657574
-0.0001612095216296642
-0.00016672095826657574
-0.00016672095826657574
-0.0001612095216296642
-0.00014467521171892948
-0.0001336523384451063
-0.00013089662012665053
-0.00012814090180819475
-0.0001198737468528274
-0.00010885087357900426
-9.507228198672531e-05
-9.507228198672531e-05
-9.78280003051811e-05
-8.680512703135793e-05
-6.751509880216745e-05
-6.475938048371164e-05
-6.751509880216745e-05
-6.751509880216745e-05
-5.9247943846800084e-05
-4.5469352254521147e-05
-3.995791561760957e-05
-4.5469352254521147e-05
-4.5469352254521147e-05
-3.4446478980697995e-05
-2.066788738841907e-05
-1.240073243305171e-05
-1.5156450751507488e-05
-1.5156450751507488e-05
-1.377859159228559e-06
2.066788738841773e-05
3.9957915617608246e-05
5.373650720988717e-05
6.200366216525454e-05
7.853797207598924e-05
0.00010058371862363556
0.00011711802853437029
0.00011436231021591448
0.00010333943694209132
9.782800030517979e-05
9.507228198672396e-05
9.23165636682682e-05
8.129369039444505e-05
5.9247943846798756e-05
4.271363393606403e-05
3.169076066224089e-05
2.3423605706873515e-05
6.8892957961388014e-06
-1.7912169069963278e-05
-3.995791561760957e-05
-5.098078889143272e-05
-5.6492225528344285e-05
-6.200366216525588e-05
-7.57822537575348e-05
-8.956084534981374e-05
-9.231656366826955e-05
-8.680512703135793e-05
-7.85379720759906e-05
-8.680512703135793e-05
-9.78280003051811e-05
-9.78280003051811e-05
-8.956084534981374e-05
-7.85379720759906e-05
-8.129369039444639e-05
-9.231656366826955e-05
-9.231656366826955e-05
-8.680512703135793e-05
-7.57822537575348e-05
-7.57822537575348e-05
-8.129369039444639e-05
-8.404940871290214e-05
-8.129369039444639e-05
-7.57822537575348e-05
-7.57822537575348e-05
-8.129369039444639e-05
-8.956084534981374e-05
-8.956084534981374e-05
-8.404940871290214e-05
-8.680512703135793e-05
-9.507228198672531e-05
-0.00010058371862363688
-9.78280003051811e-05
-8.956084534981374e-05
-8.680512703135793e-05
-8.404940871290214e-05
-7.57822537575348e-05
-6.751509880216745e-05
-6.475938048371164e-05
-7.302653543907902e-05
-8.129369039444639e-05
-7.302653543907902e-05
-4.8225070572976926e-05
-1.7912169069963278e-05
-9.64501411459592e-06
-2.066788738841907e-05
-2.8935042343786426e-05
-2.8935042343786426e-05
-2.8935042343786426e-05
-3.4446478980697995e-05
-4.5469352254521147e-05
-5.3736507209888505e-05
-6.200366216525588e-05
-7.027081712062322e-05
-7.85379720759906e-05
-9.78280003051811e-05
-0.0001198737468528274
-0.00012814090180819475
-0.00012538518348973897
-0.0001198737468528274
-0.00013089662012665053
-0.0001391637750820179
-0.0001391637750820179
-0.0001336523384451063
-0.00012538518348973897
-0.00012538518348973897
-0.0001364080567635621
-0.00014743093003738526
-0.000150186648355841
-0.00014467521171892948
-0.00014467521171892948
-0.00014743093003738526
-9.78280003051811e-05
8.129369039444505e-05
0.0003982012970168605
0.0008446276646066979
0.0013544355535210185
0.001795350484473944
0.0020626551613641565
0.0020516322880903327
0.001696144625009536
0.0010761080033569843
0.00017498811322194178
-0.0005718115510795765
-0.0006407045090409712
-0.0004974071564812702
-0.00041197988860914084
-0.0003596212405584808
-0.00031828546578164407
-0.00027694969100480727
-0.0002466367895017936
-0.00023836963454642628
-0.00024112535286488197
-0.00024112535286488197
-0.00023285819790951464
-0.0002218353246356915
-0.00021356816968032413
-0.00021356816968032413
-0.00021632388799877996
-0.00020530101472495681
-0.00019427814145113364
-0.00018876670481422206
-0.00018876670481422206
-0.00018325526817731047
-0.00017223239490348733
-0.00016396523994811996
-0.00016672095826657574
-0.00016672095826657574
-0.00016396523994811996
-0.00015294236667429682
-0.0001391637750820179
-0.00014191949340047367
-0.00014743093003738526
-0.00014467521171892948
-0.0001391637750820179
-0.00012814090180819475
-0.00012814090180819475
-0.0001336523384451063
-0.0001364080567635621
-0.00012814090180819475
-0.0001226294651712832
-0.0001198737468528274
-0.0001226294651712832
-0.00012538518348973897
-0.0001198737468528274
-0.00011160659189746003
-0.00010333943694209268
-0.00010609515526054846
-0.00010885087357900426
-0.00010058371862363688
-8.680512703135793e-05
-7.85379720759906e-05
-8.404940871290214e-05
-9.231656366826955e-05
-9.78280003051811e-05
-9.78280003051811e-05
-9.507228198672531e-05
-0.00010058371862363688
-0.00011436231021591582
-0.0001198737468528274
-0.00011160659189746003
-0.00010058371862363688
-0.00010333943694209268
-0.00011160659189746003
-0.0001171180285343716
-0.00010885087357900426
-0.00010333943694209268
-0.00010609515526054846
-0.00011436231021591582
-0.0001198737468528274
-0.0001171180285343716
-0.00011160659189746003
-0.00010885087357900426
-0.00011436231021591582
-0.0001226294651712832
-0.00012538518348973897
-0.00011436231021591582
-0.00010609515526054846
-0.00010885087357900426
-0.00011160659189746003
-0.00010333943694209268
-8.404940871290214e-05
-6.751509880216745e-05
-5.3736507209888505e-05
-3.995791561760957e-05
-3.4446478980697995e-05
-2.6179324025330647e-05
-1.240073243305171e-05
4.133577477683014e-06
3.720219729915245e-05
5.649222552834297e-05
6.475938048371032e-05
6.475938048371032e-05
5.373650720988717e-05
5.098078889143139e-05
4.546935225451981e-05
4.271363393606403e-05
4.271363393606403e-05
2.066788738841773e-05
-1.377859159228559e-06
-1.240073243305171e-05
-1.7912169069963278e-05
-3.720219729915378e-05
-6.200366216525588e-05
-8.129369039444639e-05
-8.404940871290214e-05
-8.404940871290214e-05
-8.404940871290214e-05
-8.956084534981374e-05
-0.00010333943694209268
-0.00010885087357900426
-0.00010609515526054846
-0.00010333943694209268
-0.00010885087357900426
-0.00012538518348973897
-0.0001391637750820179
-0.00014467521171892948
-0.00014743093003738526
-0.0001612095216296642
-0.0001171180285343716
6.751509880216611e-05
0.0004064684519722279
0.0008942305943389022
0.0014178170748455018
0.0018118847943846788
0.0019799836118104823
0.001822907667658502
0.0013434126802471958
0.0006958188754100854
-0.00014467521171892948
-0.0006517273823147941
-0.0006076358892195017
-0.00045882710002288904
-0.0003651326771953924
-0.00030726259250782084
-0.00027143825436789566
-0.00024388107118333775
-0.0002218353246356915
-0.0002080567330434125
-0.00020530101472495681
-0.00020530101472495681
-0.00020530101472495681
-0.00018876670481422206
-0.00017223239490348733
-0.00016396523994811996
-0.00016947667658503157
-0.00016947667658503157
-0.0001584538033112084
-0.00014467521171892948
-0.0001364080567635621
-0.0001391637750820179
-0.0001336523384451063
-0.00012814090180819475
-0.00011436231021591582
-0.00010609515526054846
-0.00010333943694209268
-0.00010609515526054846
-9.231656366826955e-05
-8.404940871290214e-05
-8.404940871290214e-05
-8.680512703135793e-05
-8.404940871290214e-05
-7.302653543907902e-05
-6.200366216525588e-05
-5.9247943846800084e-05
-5.9247943846800084e-05
-5.6492225528344285e-05
-4.5469352254521147e-05
-3.169076066224221e-05
-2.342360570687485e-05
-2.342360570687485e-05
-1.5156450751507488e-05
4.133577477683014e-06
3.169076066224089e-05
5.373650720988717e-05
6.475938048371032e-05
6.751509880216611e-05
7.578225375753347e-05
8.68051270313566e-05
9.23165636682682e-05
8.129369039444505e-05
6.200366216525454e-05
5.098078889143139e-05
4.546935225451981e-05
3.9957915617608246e-05
2.6179324025329308e-05
1.3778591592272275e-06
-1.5156450751507488e-05
-2.342360570687485e-05
-3.169076066224221e-05
-5.098078889143272e-05
-7.302653543907902e-05
-8.956084534981374e-05
-0.00010058371862363688
-0.00010333943694209268
-0.00011160659189746003
-0.00013089662012665053
-0.00014467521171892948
-0.00014743093003738526
-0.00014467521171892948
-0.00014467521171892948
-0.000150186648355841
-0.0001584538033112084
-0.00015294236667429682
-0.00014191949340047367
-0.0001336523384451063
-0.0001226294651712832
-0.0001171180285343716
-0.00010333943694209268
-7.85379720759906e-05
-5.6492225528344285e-05
-5.098078889143272e-05
-5.6492225528344285e-05
-5.098078889143272e-05
-2.6179324025330647e-05
4.133577477683014e-06
2.6179324025329308e-05
3.169076066224089e-05
2.3423605706873515e-05
2.6179324025329308e-05
3.169076066224089e-05
2.6179324025329308e-05
6.8892957961388014e-06
-6.889295796140132e-06
-6.889295796140132e-06
-1.5156450751507488e-05
-4.5469352254521147e-05
-6.200366216525588e-05
-7.85379720759906e-05
-8.956084534981374e-05
-9.507228198672531e-05
-0.00010333943694209268
-0.00011160659189746003
-0.00011436231021591582
-0.00010609515526054846
-0.00010333943694209268
-0.00011160659189746003
-0.00012538518348973897
-0.00013089662012665053
-0.00012538518348973897
-0.0001198737468528274
-0.0001336523384451063
-0.00015569808499275262
-0.00016396523994811996
-0.00016396523994811996
-8.129369039444639e-05
0.00014467521171892812
0.0005001628747997245
0.0009934364538033101
0.0015252900892652771
0.0019358921187151898
0.002109502372777904
0.0019276249637598223
0.0014205727931639574
0.0007261317769130989
-0.000150186648355841
-0.000629681635767148
-0.0005745672693980323
-0.00045331566338597764
-0.00037891126878767127
-0.0003155297474631883
-0.00026592681773098404
-0.00023836963454642628
-0.00023010247959105888
-0.00022734676127260308
-0.00021632388799877996
-0.00020254529640650095
-0.00019703385976958942
-0.0001997895780880452
-0.00019703385976958942
-0.00018601098649576628
-0.00017223239490348733
-0.00016396523994811996
-0.00016396523994811996
-0.00016396523994811996
-0.0001584538033112084
-0.00014191949340047367
-0.0001336523384451063
-0.0001364080567635621
-0.0001336523384451063
-0.00012814090180819475
-0.0001198737468528274
-0.00011160659189746003
-0.00011160659189746003
-0.0001171180285343716
-0.00011436231021591582
-0.00010058371862363688
-8.956084534981374e-05
-9.231656366826955e-05
-0.00010058371862363688
-0.00010058371862363688
-9.231656366826955e-05
-8.129369039444639e-05
-7.57822537575348e-05
-7.85379720759906e-05
-6.751509880216745e-05
-5.098078889143272e-05
-4.2713633936065354e-05
-3.995791561760957e-05
-3.169076066224221e-05
-1.240073243305171e-05
9.64501411459459e-06
2.6179324025329308e-05
2.8935042343785094e-05
2.3423605706873515e-05
2.3423605706873515e-05
2.6179324025329308e-05
2.3423605706873515e-05
1.2400732433050376e-05
-4.133577477684346e-06
-1.240073243305171e-05
-1.5156450751507488e-05
-1.7912169069963278e-05
-2.6179324025330647e-05
-3.995791561760957e-05
-5.3736507209888505e-05
-5.6492225528344285e-05
-5.3736507209888505e-05
-5.9247943846800084e-05
-7.85379720759906e-05
-9.231656366826955e-05
-9.507228198672531e-05
-9.507228198672531e-05
-9.78280003051811e-05
-0.00011160659189746003
-0.0001171180285343716
-0.00011160659189746003
-9.507228198672531e-05
-8.129369039444639e-05
-7.57822537575348e-05
-7.57822537575348e-05
-7.302653543907902e-05
-5.3736507209888505e-05
-3.169076066224221e-05
-2.342360570687485e-05
-2.342360570687485e-05
-2.342360570687485e-05
-1.7912169069963278e-05
-1.5156450751507488e-05
-1.7912169069963278e-05
-2.342360570687485e-05
-2.6179324025330647e-05
-1.7912169069963278e-05
-1.240073243305171e-05
-1.7912169069963278e-05
-2.6179324025330647e-05
-3.720219729915378e-05
-3.995791561760957e-05
-3.720219729915378e-05
-3.720219729915378e-05
-4.8225070572976926e-05
-6.200366216525588e-05
-6.475938048371164e-05
-6.200366216525588e-05
-6.200366216525588e-05
-7.302653543907902e-05
-8.680512703135793e-05
-8.680512703135793e-05
-8.129369039444639e-05
-8.404940871290214e-05
-9.507228198672531e-05
-0.00011160659189746003
-0.0001226294651712832
-0.0001198737468528274
-8.680512703135793e-05
5.9247943846798756e-05
0.0003485983672846564
0.0007977804531929496
0.0013434126802471958
0.0017981062027924003
0.0020543880064087887
0.0020295865415426865
0.0016437859769588762
0.0010320165102616916
0.00022734676127260172
-0.00047260569161516804
-0.0005938572976272227
-0.00045882710002288904
-0.00036237695887693665
-0.0002962397192339978
-0.0002521482261387052
-0.00022734676127260308
-0.0002080567330434125
-0.00019152242313267784
-0.00018325526817731047
-0.00018601098649576628
-0.00018876670481422206
-0.00018325526817731047
-0.00016396523994811996
-0.00015294236667429682
-0.00014743093003738526
-0.00014743093003738526
-0.00014467521171892948
-0.0001336523384451063
-0.0001171180285343716
-0.00011160659189746003
-0.00011436231021591582
-0.00011436231021591582
-0.00010885087357900426
-9.78280003051811e-05
-8.956084534981374e-05
-9.231656366826955e-05
-9.231656366826955e-05
-8.680512703135793e-05
-7.57822537575348e-05
-6.751509880216745e-05
-7.027081712062322e-05
-7.302653543907902e-05
-6.475938048371164e-05
-5.3736507209888505e-05
-4.2713633936065354e-05
-4.2713633936065354e-05
-4.5469352254521147e-05
-4.2713633936065354e-05
-3.169076066224221e-05
-1.5156450751507488e-05
-4.133577477684346e-06
-1.377859159228559e-06
9.64501411459459e-06
2.8935042343785094e-05
5.373650720988717e-05
6.751509880216611e-05
6.751509880216611e-05
6.751509880216611e-05
6.751509880216611e-05
7.30265354390777e-05
7.30265354390777e-05
5.649222552834297e-05
3.720219729915245e-05
2.8935042343785094e-05
2.8935042343785094e-05
1.3778591592272275e-06
-2.6179324025330647e-05
-4.2713633936065354e-05
-5.9247943846800084e-05
-7.302653543907902e-05
-9.507228198672531e-05
-0.0001198737468528274
-0.00012814090180819475
-0.00012538518348973897
-0.0001226294651712832
-0.0001198737468528274
-0.00012814090180819475
-0.00012814090180819475
-0.0001198737468528274
-0.00010609515526054846
-0.00010058371862363688
-0.00010333943694209268
-0.00010058371862363688
-8.956084534981374e-05
-7.302653543907902e-05
-6.200366216525588e-05
-5.9247943846800084e-05
-5.9247943846800084e-05
-5.098078889143272e-05
-3.720219729915378e-05
-2.6179324025330647e-05
-2.8935042343786426e-05
-2.8935042343786426e-05
-1.7912169069963278e-05
-4.133577477684346e-06
9.64501411459459e-06
6.8892957961388014e-06
-4.133577477684346e-06
-9.64501411459592e-06
-1.377859159228559e-06
2.066788738841773e-05
3.444647898069667e-05
3.9957915617608246e-05
3.444647898069667e-05
3.169076066224089e-05
2.8935042343785094e-05
2.3423605706873515e-05
6.8892957961388014e-06
-1.240073243305171e-05
-1.240073243305171e-05
-1.240073243305171e-05
-2.6179324025330647e-05
-4.2713633936065354e-05
-6.200366216525588e-05
-7.85379720759906e-05
-8.680512703135793e-05
-9.231656366826955e-05
-0.00010058371862363688
-0.00010885087357900426
-0.00011436231021591582
-0.00010885087357900426
-9.78280003051811e-05
-0.00010058371862363688
-0.00011160659189746003
-0.0001171180285343716
-0.00011436231021591582
-0.00011160659189746003
-0.0001226294651712832
-0.0001391637750820179
-0.00014743093003738526
-0.0001391637750820179
-6.475938048371164e-05
0.00013365233844510492
0.0009548563973449294
0.0014977329060807197
0.0019662050202182034
0.0022390211337453255
0.0022031967956054007
0.0018118847943846788
0.0011725581445029367
0.0002576596627756154
-0.0005084300297550932
-0.00060212445258259
-0.00048087284657053543
-0.0003982012970168618
-0.0003293083390554673
-0.0002824611276417188
-0.0002549039444571609
-0.00024112535286488197
-0.00023010247959105888
-0.0002218353246356915
-0.0002108124513618684
-0.0002080567330434125
-0.00020530101472495681
-0.00020254529640650095
-0.00019427814145113364
-0.00018325526817731047
-0.0001777438315403989
-0.0001777438315403989
-0.00017498811322194308
-0.00016396523994811996
-0.000150186648355841
-0.00014467521171892948
-0.00014743093003738526
-0.00014743093003738526
-0.0001391637750820179
-0.00013089662012665053
-0.0001226294651712832
-0.0001226294651712832
-0.00012814090180819475
-0.00012814090180819475
-0.0001198737468528274
-0.00010885087357900426
-0.00010609515526054846
-0.00011160659189746003
-0.00011160659189746003
-0.00010333943694209268
-9.507228198672531e-05
-9.231656366826955e-05
-9.507228198672531e-05
-9.507228198672531e-05
-8.680512703135793e-05
-7.302653543907902e-05
-6.200366216525588e-05
-6.475938048371164e-05
-5.9247943846800084e-05
-4.2713633936065354e-05
-2.066788738841907e-05
-1.377859159228559e-06
1.3778591592272275e-06
1.3778591592272275e-06
4.133577477683014e-06
1.2400732433050376e-05
1.2400732433050376e-05
4.133577477683014e-06
-1.240073243305171e-05
-2.342360570687485e-05
-2.6179324025330647e-05
-2.342360570687485e-05
-3.169076066224221e-05
-5.098078889143272e-05
-6.200366216525588e-05
-6.475938048371164e-05
-7.302653543907902e-05
-8.956084534981374e-05
-0.00010058371862363688
-0.00010058371862363688
-9.231656366826955e-05
-8.956084534981374e-05
-9.507228198672531e-05
-0.00010333943694209268
-0.00010333943694209268
-0.00010058371862363688
-0.00010333943694209268
-0.00011436231021591582
-0.0001226294651712832
-0.0001198737468528274
-0.00010609515526054846
-8.680512703135793e-05
-7.57822537575348e-05
-6.751509880216745e-05
-5.6492225528344285e-05
-4.5469352254521147e-05
-3.169076066224221e-05
-2.342360570687485e-05
-1.240073243305171e-05
6.8892957961388014e-06
3.444647898069667e-05
5.9247943846798756e-05
5.649222552834297e-05
4.546935225451981e-05
4.271363393606403e-05
4.546935225451981e-05
4.82250705729756e-05
4.271363393606403e-05
3.720219729915245e-05
1.5156450751506162e-05
-1.377859159228559e-06
-9.64501411459592e-06
-1.5156450751507488e-05
-3.995791561760957e-05
-7.027081712062322e-05
-8.129369039444639e-05
-7.85379720759906e-05
-8.129369039444639e-05
-9.231656366826955e-05
-0.00010333943694209268
-0.00010609515526054846
-0.00010609515526054846
-0.00010333943694209268
-0.00010885087357900426
-0.0001198737468528274
-0.00013089662012665053
-0.0001391637750820179
-0.00014191949340047367
-0.00014191949340047367
-0.0001391637750820179
-6.475938048371164e-05
0.00015294236667429551
0.0005111857480735478
0.0009796578622110316
0.0014426185397116034
0.0017788161745632097
0.0019441592736705567
0.001855976287479972
0.001489465751125352
0.0008997420309758136
-4.133577477684346e-06
-0.000629681635767148
-0.00047536140993362393
-0.0003871784237430386
-0.0003348197756923787
-0.00029072828259708617
-0.00024939250782024937
-0.00022459104295414727
-0.0002218353246356915
-0.00022459104295414727
-0.0002190796063172357
-0.0002080567330434125
-0.00019427814145113364
-0.00018876670481422206
-0.00018876670481422206
-0.00018601098649576628
-0.00017498811322194308
-0.0001584538033112084
-0.00015294236667429682
-0.00015569808499275262
-0.00015569808499275262
-0.00014743093003738526
-0.0001336523384451063
-0.0001226294651712832
-0.00012538518348973897
-0.00012814090180819475
-0.0001198737468528274
-0.00010609515526054846
-9.78280003051811e-05
-0.00010058371862363688
-0.00010333943694209268
-0.00010058371862363688
-8.956084534981374e-05
-8.129369039444639e-05
-8.129369039444639e-05
-8.680512703135793e-05
-8.404940871290214e-05
-7.57822537575348e-05
-5.9247943846800084e-05
-5.098078889143272e-05
-5.098078889143272e-05
-4.5469352254521147e-05
-2.8935042343786426e-05
-1.377859159228559e-06
2.066788738841773e-05
3.9957915617608246e-05
4.82250705729756e-05
6.200366216525454e-05
8.68051270313566e-05
9.507228198672396e-05
8.68051270313566e-05
7.578225375753347e-05
6.475938048371032e-05
5.9247943846798756e-05
5.373650720988717e-05
3.720219729915245e-05
1.2400732433050376e-05
-4.133577477684346e-06
-1.240073243305171e-05
-2.342360570687485e-05
-4.2713633936065354e-05
-6.475938048371164e-05
-8.404940871290214e-05
-8.956084534981374e-05
-8.956084534981374e-05
-0.00010058371862363688
-0.0001171180285343716
-0.0001226294651712832
-0.0001198737468528274
-0.0001171180285343716
-0.0001226294651712832
-0.00015294236667429682
-0.00015569808499275262
-0.00015294236667429682
-0.000150186648355841
-0.00015569808499275262
-0.00015294236667429682
-0.0001391637750820179
-0.0001198737468528274
-9.78280003051811e-05
-8.404940871290214e-05
-8.404940871290214e-05
-8.129369039444639e-05
-6.475938048371164e-05
-3.995791561760957e-05
-2.342360570687485e-05
-1.240073243305171e-05
-1.377859159228559e-06
6.8892957961388014e-06
1.7912169069961946e-05
1.7912169069961946e-05
4.133577477683014e-06
-6.889295796140132e-06
-9.64501411459592e-06
-4.133577477684346e-06
-1.7912169069963278e-05
-3.995791561760957e-05
-5.6492225528344285e-05
-7.027081712062322e-05
-7.85379720759906e-05
-9.231656366826955e-05
-0.00011160659189746003
-0.00012538518348973897
-0.00012814090180819475
-0.00012814090180819475
-0.00012814090180819475
-0.00013089662012665053
-0.0001391637750820179
-0.00014467521171892948
-0.00014467521171892948
-0.00014191949340047367
-0.000150186648355841
-0.00016672095826657574
-0.00017498811322194308
-0.0001584538033112084
-0.0001198737468528274
-2.6179324025330647e-05
0.00019152242313267648
0.0005414986495765614
0.000985169298847943
0.0014178170748455018
0.001720946089875638
0.001855976287479972
0.0017705490196078426
0.0014178170748455018
0.0008115590447852286
-8.129369039444639e-05
-0.0006407045090409712
-0.0006131473258564133
-0.00048362856488899143
-0.0003871784237430386
-0.00031828546578164407
-0.00027970540932326305
-0.00025765966277561676
-0.00024112535286488197
-0.00023010247959105888
-0.0002218353246356915
-0.0002218353246356915
-0.0002190796063172357
-0.0001997895780880452
-0.00018876670481422206
-0.00018325526817731047
-0.00018876670481422206
-0.00018601098649576628
-0.00017498811322194308
-0.00016396523994811996
-0.0001612095216296642
-0.00016396523994811996
-0.00016672095826657574
-0.0001612095216296642
-0.00014743093003738526
-0.0001364080567635621
-0.0001391637750820179
-0.00014467521171892948
-0.00014191949340047367
-0.0001336523384451063
-0.0001226294651712832
-0.00012538518348973897
-0.00012814090180819475
-0.00012814090180819475
-0.0001226294651712832
-0.00011160659189746003
-0.00010885087357900426
-0.0001171180285343716
-0.0001171180285343716
-0.00010885087357900426
-9.231656366826955e-05
-8.404940871290214e-05
-8.404940871290214e-05
-8.404940871290214e-05
-6.751509880216745e-05
-4.5469352254521147e-05
-2.8935042343786426e-05
-2.342360570687485e-05
-1.7912169069963278e-05
-9.64501411459592e-06
-1.377859159228559e-06
-4.133577477684346e-06
-1.5156450751507488e-05
-2.8935042343786426e-05
-3.995791561760957e-05
-3.995791561760957e-05
-4.2713633936065354e-05
-5.6492225528344285e-05
-6.751509880216745e-05
-7.302653543907902e-05
-7.85379720759906e-05
-8.680512703135793e-05
-0.00010058371862363688
-0.0001171180285343716
-0.00012538518348973897
-0.0001198737468528274
-0.00011160659189746003
-0.00010609515526054846
-0.00010333943694209268
-9.78280003051811e-05
-8.404940871290214e-05
-7.027081712062322e-05
-7.57822537575348e-05
-9.231656366826955e-05
-0.00010058371862363688
-9.507228198672531e-05
-8.680512703135793e-05
-8.404940871290214e-05
-8.956084534981374e-05
-9.507228198672531e-05
-9.78280003051811e-05
-9.78280003051811e-05
-9.507228198672531e-05
-9.231656366826955e-05
-8.680512703135793e-05
-7.85379720759906e-05
-6.751509880216745e-05
-7.027081712062322e-05
-7.57822537575348e-05
-8.129369039444639e-05
-7.57822537575348e-05
-6.751509880216745e-05
-7.027081712062322e-05
-8.129369039444639e-05
-8.680512703135793e-05
-8.129369039444639e-05
-7.302653543907902e-05
-7.57822537575348e-05
-8.404940871290214e-05
-9.78280003051811e-05
-9.78280003051811e-05
-9.78280003051811e-05
-0.00010885087357900426
-0.00012814090180819475
-0.000150186648355841
-0.0001612095216296642
-9.78280003051811e-05
0.00011160659189745871
0.000469849973296711
0.0009410778057526506
0.0014067942015716782
0.0017457475547417404
0.0018614877241168832
0.0016437859769588762
0.0011477566796368347
0.00048362856488898997
-0.00029072828259708617
-0.0006186587624933248
-0.0005194529030289164
-0.00040646845197222917
-0.0003320640573739229
-0.0002686825360494398
-0.00021356816968032413
-0.00018601098649576628
-0.00018325526817731047
-0.00019152242313267784
-0.00019152242313267784
-0.0001777438315403989
-0.00016672095826657574
-0.00016396523994811996
-0.00016396523994811996
-0.0001612095216296642
-0.000150186648355841
-0.0001336523384451063
-0.00013089662012665053
-0.0001336523384451063
-0.00012538518348973897
-0.00011436231021591582
-0.00010333943694209268
-9.78280003051811e-05
-0.00010333943694209268
-0.00010609515526054846
-9.507228198672531e-05
-8.404940871290214e-05
-7.85379720759906e-05
-8.404940871290214e-05
-8.404940871290214e-05
-7.85379720759906e-05
-7.027081712062322e-05
-6.475938048371164e-05
-6.751509880216745e-05
-6.475938048371164e-05
-5.3736507209888505e-05
-3.995791561760957e-05
-4.2713633936065354e-05
-4.2713633936065354e-05
-3.169076066224221e-05
-1.5156450751507488e-05
1.3778591592272275e-06
4.133577477683014e-06
6.8892957961388014e-06
1.5156450751506162e-05
2.8935042343785094e-05
3.444647898069667e-05
3.169076066224089e-05
2.066788738841773e-05
9.64501411459459e-06
4.133577477683014e-06
4.133577477683014e-06
-1.377859159228559e-06
-1.7912169069963278e-05
-3.169076066224221e-05
-3.995791561760957e-05
-4.2713633936065354e-05
-5.3736507209888505e-05
-7.57822537575348e-05
-9.78280003051811e-05
-0.00010609515526054846
-0.00010885087357900426
-0.00011160659189746003
-0.0001171180285343716
-0.00012538518348973897
-0.00012538518348973897
-0.00011436231021591582
-0.00010609515526054846
-0.00010885087357900426
-0.00011160659189746003
-0.00010885087357900426
-9.78280003051811e-05
-8.680512703135793e-05
-8.404940871290214e-05
-8.680512703135793e-05
-8.680512703135793e-05
-7.85379720759906e-05
-6.475938048371164e-05
-5.6492225528344285e-05
-6.200366216525588e-05
-6.200366216525588e-05
-5.9247943846800084e-05
-5.3736507209888505e-05
-4.8225070572976926e-05
-5.3736507209888505e-05
-5.9247943846800084e-05
-5.9247943846800084e-05
-4.8225070572976926e-05
-3.720219729915378e-05
-3.4446478980697995e-05
-3.169076066224221e-05
-2.8935042343786426e-05
-2.6179324025330647e-05
-2.8935042343786426e-05
-3.169076066224221e-05
-2.066788738841907e-05
-6.889295796140132e-06
1.7912169069961946e-05
2.6179324025329308e-05
1.7912169069961946e-05
6.8892957961388014e-06
-9.64501411459592e-06
-1.5156450751507488e-05
-1.240073243305171e-05
-2.8935042343786426e-05
-4.8225070572976926e-05
-5.9247943846800084e-05
-6.475938048371164e-05
-7.85379720759906e-05
-9.78280003051811e-05
-0.00010885087357900426
-0.00011160659189746003
-0.00010609515526054846
-0.00010333943694209268
-0.00011160659189746003
-0.0001198737468528274
-0.0001171180285343716
-0.00011436231021591582
-0.00010609515526054846
-0.00011436231021591582
-0.00012814090180819475
-0.0001391637750820179
-0.00014191949340047367
-0.00013089662012665053
-0.00011436231021591582
-3.4446478980697995e-05
0.00018049954985885336
0.0005359872129396498
0.0010237493553063243
0.001530801525902189
0.0019138463721675438
0.0020847009079118014
0.0019414035553521009
0.0014867100328068963
0.0007950247348744939
-0.00013089662012665053
-0.000629681635767148
-0.0005607886778057534
-0.00043402563515678713
-0.0003568655222400251
-0.0003045068741893651
-0.0002686825360494398
-0.00024112535286488197
-0.00021356816968032413
-0.00020254529640650095
-0.00020530101472495681
-0.0002080567330434125
-0.00020530101472495681
-0.00019152242313267784
-0.00018049954985885472
-0.00017498811322194308
-0.00018049954985885472
-0.0001777438315403989
-0.00016396523994811996
-0.000150186648355841
-0.00014467521171892948
-0.000150186648355841
-0.00015569808499275262
-0.000150186648355841
-0.0001336523384451063
-0.00012538518348973897
-0.00012814090180819475
-0.00013089662012665053
-0.00012538518348973897
-0.0001171180285343716
-0.00010885087357900426
-0.00011160659189746003
-0.0001171180285343716
-0.0001198737468528274
-0.00010058371862363688
-9.78280003051811e-05
-0.00010058371862363688
-0.00010333943694209268
-9.507228198672531e-05
-8.680512703135793e-05
-8.404940871290214e-05
-8.680512703135793e-05
-8.680512703135793e-05
-7.57822537575348e-05
-6.475938048371164e-05
-5.6492225528344285e-05
-5.6492225528344285e-05
-5.6492225528344285e-05
-5.098078889143272e-05
-3.720219729915378e-05
-3.169076066224221e-05
-4.2713633936065354e-05
-5.3736507209888505e-05
-5.6492225528344285e-05
-5.6492225528344285e-05
-5.6492225528344285e-05
-6.751509880216745e-05
-7.302653543907902e-05
-7.57822537575348e-05
-7.027081712062322e-05
-6.475938048371164e-05
-6.751509880216745e-05
-8.129369039444639e-05
-8.680512703135793e-05
-8.129369039444639e-05
-7.85379720759906e-05
-8.404940871290214e-05
-9.231656366826955e-05
-9.78280003051811e-05
-9.507228198672531e-05
-8.956084534981374e-05
-8.956084534981374e-05
-9.78280003051811e-05
-0.00010609515526054846
-0.00010333943694209268
-9.231656366826955e-05
-8.129369039444639e-05
-7.85379720759906e-05
-7.027081712062322e-05
-5.098078889143272e-05
-2.6179324025330647e-05
-6.889295796140132e-06
-1.377859159228559e-06
-1.377859159228559e-06
6.8892957961388014e-06
3.720219729915245e-05
6.751509880216611e-05
8.956084534981241e-05
9.23165636682682e-05
8.68051270313566e-05
8.956084534981241e-05
9.782800030517979e-05
9.507228198672396e-05
7.578225375753347e-05
6.200366216525454e-05
6.475938048371032e-05
5.649222552834297e-05
3.9957915617608246e-05
1.7912169069961946e-05
-1.377859159228559e-06
-1.7912169069963278e-05
-2.8935042343786426e-05
-4.8225070572976926e-05
-6.200366216525588e-05
-7.027081712062322e-05
-6.475938048371164e-05
-6.200366216525588e-05
-7.027081712062322e-05
-8.129369039444639e-05
-8.680512703135793e-05
-8.680512703135793e-05
-8.680512703135793e-05
-9.78280003051811e-05
-0.0001198737468528274
-0.00013089662012665053
-0.00012538518348973897
-4.8225070572976926e-05
0.0001694766765850302
0.0005194529030289152
0.000998947890440222
0.0015115114976729984
0.0018752663157091622
0.0019910064850843048
0.0017374803997863729
0.0011973596093690386
0.0004946514381628131
-0.0003127740291447324
-0.0006462159456778825
-0.0005414986495765627
-0.0004257584802014197
-0.0003430869306477461
-0.00027694969100480727
-0.00023010247959105888
-0.00020530101472495681
-0.00019703385976958942
-0.00019152242313267784
-0.00018325526817731047
-0.00016947667658503157
-0.00016396523994811996
-0.0001612095216296642
-0.00015569808499275262
-0.00014191949340047367
-0.00013089662012665053
-0.0001226294651712832
-0.00012538518348973897
-0.00012814090180819475
-0.0001198737468528274
-0.00010609515526054846
-9.78280003051811e-05
-9.78280003051811e-05
-9.78280003051811e-05
-8.956084534981374e-05
-7.57822537575348e-05
-6.475938048371164e-05
-6.751509880216745e-05
-7.027081712062322e-05
-6.475938048371164e-05
-5.3736507209888505e-05
-4.2713633936065354e-05
-3.720219729915378e-05
-3.995791561760957e-05
-3.995791561760957e-05
-2.8935042343786426e-05
-1.5156450751507488e-05
-1.240073243305171e-05
-1.7912169069963278e-05
-1.240073243305171e-05
4.133577477683014e-06
2.3423605706873515e-05
3.720219729915245e-05
4.546935225451981e-05
7.578225375753347e-05
9.782800030517979e-05
0.00011160659189745871
0.00010885087357900291
0.00010058371862363556
9.782800030517979e-05
9.507228198672396e-05
8.956084534981241e-05
7.578225375753347e-05
5.649222552834297e-05
4.271363393606403e-05
3.720219729915245e-05
2.8935042343785094e-05
1.2400732433050376e-05
-9.64501411459592e-06
-3.169076066224221e-05
-4.2713633936065354e-05
-5.3736507209888505e-05
-7.302653543907902e-05
-8.956084534981374e-05
-0.00010609515526054846
-0.00011160659189746003
-0.00010885087357900426
-0.00011436231021591582
-0.00012814090180819475
-0.0001364080567635621
-0.0001336523384451063
-0.0001226294651712832
-0.00011436231021591582
-0.0001171180285343716
-0.0001171180285343716
-0.00010333943694209268
-7.85379720759906e-05
-5.3736507209888505e-05
-4.2713633936065354e-05
-3.720219729915378e-05
-2.8935042343786426e-05
-1.5156450751507488e-05
-6.889295796140132e-06
6.8892957961388014e-06
2.066788738841773e-05
3.9957915617608246e-05
6.200366216525454e-05
6.751509880216611e-05
5.9247943846798756e-05
4.546935225451981e-05
3.720219729915245e-05
3.444647898069667e-05
3.169076066224089e-05
2.8935042343785094e-05
9.64501411459459e-06
-1.240073243305171e-05
-2.342360570687485e-05
-3.169076066224221e-05
-4.8225070572976926e-05
-7.302653543907902e-05
-9.231656366826955e-05
-9.231656366826955e-05
-8.680512703135793e-05
-8.680512703135793e-05
-9.507228198672531e-05
-0.00010609515526054846
-0.00010885087357900426
-0.00010058371862363688
-0.00010058371862363688
-0.00010885087357900426
-0.0001226294651712832
-0.00013089662012665053
-0.0001391637750820179
-0.00014191949340047367
-7.57822537575348e-05
0.00013089662012664922
0.0004891400015259016
0.000985169298847943
0.0015197786526283655
0.0019166020904859992
0.0020847009079118014
0.0019221135271229105
0.0014398628213931478
0.0007592003967345686
-0.00012538518348973897
-0.0006241701991302363
-0.0005718115510795765
-0.00043953707179369863
-0.0003596212405584808
-0.0003045068741893651
-0.00026592681773098404
-0.00023561391622797047
-0.0002108124513618684
-0.00019703385976958942
-0.0001997895780880452
-0.00020254529640650095
-0.0001997895780880452
-0.00018601098649576628
-0.00017223239490348733
-0.00016672095826657574
-0.00016672095826657574
-0.00016396523994811996
-0.00015569808499275262
-0.00014191949340047367
-0.0001336523384451063
-0.0001336523384451063
-0.0001336523384451063
-0.00012538518348973897
-0.00011436231021591582
-0.00010609515526054846
-0.00011160659189746003
-0.00011160659189746003
-0.00010609515526054846
-9.507228198672531e-05
-8.956084534981374e-05
-9.507228198672531e-05
-9.231656366826955e-05
-8.956084534981374e-05
-8.129369039444639e-05
-7.027081712062322e-05
-7.027081712062322e-05
-7.302653543907902e-05
-7.027081712062322e-05
-6.200366216525588e-05
-5.098078889143272e-05
-4.2713633936065354e-05
-4.2713633936065354e-05
-4.2713633936065354e-05
-2.342360570687485e-05
-4.133577477684346e-06
1.2400732433050376e-05
1.5156450751506162e-05
2.3423605706873515e-05
3.444647898069667e-05
4.271363393606403e-05
4.271363393606403e-05
3.444647898069667e-05
2.066788738841773e-05
9.64501411459459e-06
6.8892957961388014e-06
-6.889295796140132e-06
-2.6179324025330647e-05
-3.169076066224221e-05
-3.169076066224221e-05
-3.4446478980697995e-05
-5.098078889143272e-05
-7.027081712062322e-05
-8.129369039444639e-05
-8.129369039444639e-05
-8.404940871290214e-05
-9.507228198672531e-05
-0.00011436231021591582
-0.0001198737468528274
-0.0001198737468528274
-0.00011436231021591582
-0.00010885087357900426
-0.00011436231021591582
-0.0001198737468528274
-0.0001171180285343716
-9.78280003051811e-05
-7.85379720759906e-05
-6.751509880216745e-05
-5.9247943846800084e-05
-3.720219729915378e-05
-4.133577477684346e-06
2.6179324025329308e-05
3.9957915617608246e-05
5.098078889143139e-05
6.475938048371032e-05
7.578225375753347e-05
8.129369039444505e-05
7.30265354390777e-05
4.82250705729756e-05
2.066788738841773e-05
1.7912169069961946e-05
2.3423605706873515e-05
1.5156450751506162e-05
-1.240073243305171e-05
-3.169076066224221e-05
-3.4446478980697995e-05
-3.4446478980697995e-05
-3.169076066224221e-05
-3.995791561760957e-05
-5.6492225528344285e-05
-6.200366216525588e-05
-5.9247943846800084e-05
-5.9247943846800084e-05
-7.027081712062322e-05
-8.404940871290214e-05
-8.680512703135793e-05
-8.129369039444639e-05
-8.129369039444639e-05
-8.680512703135793e-05
-9.78280003051811e-05
-0.00010058371862363688
-0.00010058371862363688
-0.00010885087357900426
-0.0001226294651712832
-0.00012538518348973897
-0.0001171180285343716
-4.8225070572976926e-05
0.00015018664835583973
0.00047536140993362247
0.0009383220874341949
0.0014701757228961615
0.0019138463721675438
0.0021591053025101082
0.0020819451895933466
0.000982413580529487
0.00012262946517128183
-0.000500162874799726
-0.0005332314946211955
-0.00041749132524605234
-0.0003513540856031135
-0.0002989954375524536
-0.0002466367895017936
-0.0002108124513618684
-0.00019427814145113364
-0.00019427814145113364
-0.00019427814145113364
-0.00018325526817731047
-0.00016947667658503157
-0.00016396523994811996
-0.00016672095826657574
-0.00016396523994811996
-0.000150186648355841
-0.0001391637750820179
-0.00013089662012665053
-0.00013089662012665053
-0.00013089662012665053
-0.0001226294651712832
-0.00011160659189746003
-0.00010609515526054846
-0.00010609515526054846
-0.00010885087357900426
-0.00010333943694209268
-9.231656366826955e-05
-8.404940871290214e-05
-8.404940871290214e-05
-8.404940871290214e-05
-7.85379720759906e-05
-7.027081712062322e-05
-6.475938048371164e-05
-6.751509880216745e-05
-6.751509880216745e-05
-6.751509880216745e-05
-5.9247943846800084e-05
-4.5469352254521147e-05
-4.2713633936065354e-05
-4.5469352254521147e-05
-4.5469352254521147e-05
-3.169076066224221e-05
-1.5156450751507488e-05
-4.133577477684346e-06
-1.377859159228559e-06
6.8892957961388014e-06
2.3423605706873515e-05
4.271363393606403e-05
4.82250705729756e-05
3.720219729915245e-05
2.6179324025329308e-05
2.6179324025329308e-05
2.3423605706873515e-05
1.5156450751506162e-05
1.3778591592272275e-06
-1.5156450751507488e-05
-2.342360570687485e-05
-2.342360570687485e-05
-2.6179324025330647e-05
-4.2713633936065354e-05
-6.475938048371164e-05
-8.680512703135793e-05
-9.78280003051811e-05
-0.00010058371862363688
-0.00011436231021591582
-0.00013089662012665053
-0.0001364080567635621
-0.0001336523384451063
-0.00012814090180819475
-0.00012814090180819475
-0.00012814090180819475
-0.0001198737468528274
-0.00010609515526054846
-9.507228198672531e-05
-9.507228198672531e-05
-8.956084534981374e-05
-7.027081712062322e-05
-4.2713633936065354e-05
-2.066788738841907e-05
-6.889295796140132e-06
-1.377859159228559e-06
4.133577477683014e-06
1.7912169069961946e-05
3.720219729915245e-05
4.82250705729756e-05
5.9247943846798756e-05
7.30265354390777e-05
8.404940871290084e-05
8.404940871290084e-05
7.578225375753347e-05
5.649222552834297e-05
3.9957915617608246e-05
3.720219729915245e-05
3.9957915617608246e-05
2.6179324025329308e-05
1.3778591592272275e-06
-1.7912169069963278e-05
-2.8935042343786426e-05
-4.2713633936065354e-05
-5.9247943846800084e-05
-7.57822537575348e-05
-8.680512703135793e-05
-8.956084534981374e-05
-8.404940871290214e-05
-8.404940871290214e-05
-9.231656366826955e-05
-0.00010058371862363688
-0.00010333943694209268
-9.78280003051811e-05
-9.507228198672531e-05
-0.00010333943694209268
-0.0001226294651712832
-0.0001364080567635621
-0.0001364080567635621
-0.00012538518348973897
-6.475938048371164e-05
0.00011987374685282605
0.0004533156633859763
0.0009355663691157388
0.0014811985961699847
0.0019358921187151898
0.002192173922331578
0.002145326710917829
0.0017402361181048285
0.0011009094682230861
0.00019978957808804387
-0.0005249643396658282
-0.0005966130159456783
-0.0004615828183413449
-0.00037339983215075977
-0.00030726259250782084
-0.00027143825436789566
-0.00024939250782024937
-0.00022459104295414727
-0.00020530101472495681
-0.00019703385976958942
-0.00019703385976958942
-0.00019427814145113364
-0.00018325526817731047
-0.00017223239490348733
-0.00016947667658503157
-0.00017223239490348733
-0.00016672095826657574
-0.00015569808499275262
-0.0001391637750820179
-0.0001364080567635621
-0.0001391637750820179
-0.0001336523384451063
-0.00012538518348973897
-0.00011436231021591582
-0.00010885087357900426
-0.00011160659189746003
-0.00011160659189746003
-0.00010609515526054846
-9.78280003051811e-05
-8.956084534981374e-05
-9.507228198672531e-05
-0.00010058371862363688
-9.507228198672531e-05
-8.404940871290214e-05
-7.302653543907902e-05
-7.302653543907902e-05
-7.57822537575348e-05
-7.302653543907902e-05
-5.9247943846800084e-05
-4.8225070572976926e-05
-3.995791561760957e-05
-3.720219729915378e-05
-3.4446478980697995e-05
-2.342360570687485e-05
1.3778591592272275e-06
2.066788738841773e-05
2.066788738841773e-05
2.6179324025329308e-05
3.9957915617608246e-05
5.373650720988717e-05
5.098078889143139e-05
3.169076066224089e-05
1.5156450751506162e-05
1.2400732433050376e-05
9.64501411459459e-06
1.3778591592272275e-06
-1.5156450751507488e-05
-2.8935042343786426e-05
-3.995791561760957e-05
-4.5469352254521147e-05
-4.8225070572976926e-05
-6.475938048371164e-05
-8.129369039444639e-05
-9.231656366826955e-05
-8.680512703135793e-05
-8.404940871290214e-05
-9.231656366826955e-05
-0.00010333943694209268
-0.00011160659189746003
-0.00011160659189746003
-0.00011160659189746003
-0.00011436231021591582
-0.00012538518348973897
-0.00013089662012665053
-0.00012814090180819475
-0.00010885087357900426
-9.507228198672531e-05
-7.85379720759906e-05
-5.6492225528344285e-05
-3.720219729915378e-05
-2.342360570687485e-05
-1.7912169069963278e-05
-6.889295796140132e-06
1.5156450751506162e-05
4.546935225451981e-05
6.751509880216611e-05
7.02708171206219e-05
6.200366216525454e-05
5.649222552834297e-05
6.200366216525454e-05
6.200366216525454e-05
5.373650720988717e-05
3.9957915617608246e-05
2.3423605706873515e-05
9.64501411459459e-06
6.8892957961388014e-06
-6.889295796140132e-06
-3.169076066224221e-05
-5.9247943846800084e-05
-7.027081712062322e-05
-7.302653543907902e-05
-7.85379720759906e-05
-8.956084534981374e-05
-0.00010058371862363688
-0.00010333943694209268
-0.00010058371862363688
-0.00010058371862363688
-0.00010609515526054846
-0.0001171180285343716
-0.0001198737468528274
-0.0001198737468528274
-0.00012538518348973897
-0.0001364080567635621
-0.00014191949340047367
-0.00010333943694209268
5.649222552834297e-05
0.0003596212405584795
0.0007895132982375822
0.0012690082856488892
0.0016823660334172573
0.0019441592736705567
0.0019827393301289375
0.0017126789349202708
0.0012028710460059502
0.0004009570153353164
-0.000447804226749066
-0.0006489716639963384
-0.0005139414663920051
-0.00041749132524605234
-0.0003513540856031135
-0.0002962397192339978
-0.00024939250782024937
-0.0002190796063172357
-0.00021632388799877996
-0.0002218353246356915
-0.00021632388799877996
-0.00020254529640650095
-0.00019152242313267784
-0.00018601098649576628
-0.00018876670481422206
-0.00018601098649576628
-0.00017223239490348733
-0.0001584538033112084
-0.00015294236667429682
-0.00015294236667429682
-0.000150186648355841
-0.00012538518348973897
-0.0001226294651712832
-0.0001226294651712832
-0.00012538518348973897
-0.0001226294651712832
-0.00010885087357900426
-9.78280003051811e-05
-0.00010058371862363688
-0.00010333943694209268
-0.00010333943694209268
-9.507228198672531e-05
-8.404940871290214e-05
-8.129369039444639e-05
-8.404940871290214e-05
-8.129369039444639e-05
-6.751509880216745e-05
-5.3736507209888505e-05
-5.098078889143272e-05
-5.3736507209888505e-05
-4.8225070572976926e-05
-3.169076066224221e-05
-1.240073243305171e-05
1.3778591592272275e-06
6.8892957961388014e-06
2.066788738841773e-05
3.9957915617608246e-05
6.200366216525454e-05
7.02708171206219e-05
6.200366216525454e-05
5.098078889143139e-05
4.82250705729756e-05
4.546935225451981e-05
3.720219729915245e-05
1.7912169069961946e-05
-1.377859159228559e-06
-1.5156450751507488e-05
-2.066788738841907e-05
-2.8935042343786426e-05
-4.2713633936065354e-05
-6.200366216525588e-05
-7.85379720759906e-05
-8.404940871290214e-05
-8.680512703135793e-05
-9.78280003051811e-05
-0.00011436231021591582
-0.0001198737468528274
-0.0001171180285343716
-0.0001171180285343716
-0.00012538518348973897
-0.0001391637750820179
-0.000150186648355841
-0.00014743093003738526
-0.00014191949340047367
-0.0001391637750820179
-0.00014467521171892948
-0.00014467521171892948
-0.00012814090180819475
-0.00010058371862363688
-7.85379720759906e-05
-7.027081712062322e-05
-6.751509880216745e-05
-5.9247943846800084e-05
-3.995791561760957e-05
-1.5156450751507488e-05
1.3778591592272275e-06
1.2400732433050376e-05
2.066788738841773e-05
3.169076066224089e-05
3.720219729915245e-05
2.3423605706873515e-05
1.2400732433050376e-05
1.2400732433050376e-05
1.5156450751506162e-05
1.3778591592272275e-06
-2.8935042343786426e-05
-4.5469352254521147e-05
-5.3736507209888505e-05
-6.200366216525588e-05
-8.129369039444639e-05
-0.00010058371862363688
-0.00010885087357900426
-0.00011160659189746003
-0.00010885087357900426
-0.00010885087357900426
-0.0001198737468528274
-0.00012814090180819475
-0.00013089662012665053
-0.00012538518348973897
-0.00012538518348973897
-0.0001336523384451063
-0.000150186648355841
-0.0001584538033112084
-0.00014467521171892948
-0.00010609515526054846
-1.7912169069963278e-05
0.0001832552681773092
0.0005249643396658268
0.00097414642557412
0.0014040384832532226
0.0017181903715571825
0.0018614877241168832
0.0017870833295185766
0.001453641412985427
0.0008721848477912556
-2.066788738841907e-05
-0.0006324373540856038
-0.0006214144808117806
-0.00048362856488899143
-0.0003844227054245829
-0.0003155297474631883
-0.00027694969100480727
-0.0002466367895017936
-0.00023010247959105888
-0.00021356816968032413
-0.00020530101472495681
-0.00020530101472495681
-0.00020530101472495681
-0.0001997895780880452
-0.00018601098649576628
-0.00017223239490348733
-0.00017223239490348733
-0.00017498811322194308
-0.00017223239490348733
-0.00016396523994811996
-0.00014467521171892948
-0.00014191949340047367
-0.00014743093003738526
-0.00014743093003738526
-0.00014191949340047367
-0.00012814090180819475
-0.0001226294651712832
-0.00012538518348973897
-0.00012814090180819475
-0.0001226294651712832
-0.00011436231021591582
-0.00010885087357900426
-0.00011160659189746003
-0.00010609515526054846
-9.78280003051811e-05
-9.231656366826955e-05
-9.507228198672531e-05
-9.507228198672531e-05
-9.231656366826955e-05
-8.129369039444639e-05
-7.027081712062322e-05
-6.751509880216745e-05
-7.027081712062322e-05
-6.200366216525588e-05
-4.2713633936065354e-05
-2.342360570687485e-05
-9.64501411459592e-06
-4.133577477684346e-06
4.133577477683014e-06
1.2400732433050376e-05
1.7912169069961946e-05
1.5156450751506162e-05
1.3778591592272275e-06
-1.5156450751507488e-05
-2.066788738841907e-05
-2.342360570687485e-05
-3.169076066224221e-05
-4.5469352254521147e-05
-6.200366216525588e-05
-7.027081712062322e-05
-7.302653543907902e-05
-7.85379720759906e-05
-9.507228198672531e-05
-0.00011436231021591582
-0.0001198737468528274
-0.00011436231021591582
-0.00010885087357900426
-0.00011160659189746003
-0.0001198737468528274
-0.00012814090180819475
-0.0001226294651712832
-0.0001171180285343716
-0.0001171180285343716
-0.00012538518348973897
-0.0001336523384451063
-0.00013089662012665053
-0.0001226294651712832
-0.00011436231021591582
-0.00011160659189746003
-0.00010058371862363688
-8.404940871290214e-05
-5.9247943846800084e-05
-4.5469352254521147e-05
-4.5469352254521147e-05
-4.2713633936065354e-05
-2.6179324025330647e-05
4.133577477683014e-06
2.6179324025329308e-05
3.720219729915245e-05
3.720219729915245e-05
3.720219729915245e-05
4.271363393606403e-05
5.098078889143139e-05
3.9957915617608246e-05
2.066788738841773e-05
1.5156450751506162e-05
9.64501411459459e-06
1.3778591592272275e-06
-9.64501411459592e-06
-2.8935042343786426e-05
-7.302653543907902e-05
-7.57822537575348e-05
-8.129369039444639e-05
-9.231656366826955e-05
-0.00010333943694209268
-0.00010333943694209268
-9.78280003051811e-05
-9.78280003051811e-05
-0.00010609515526054846
-0.0001171180285343716
-0.0001226294651712832
-0.0001171180285343716
-0.0001226294651712832
-0.0001336523384451063
-0.000150186648355841
-0.00015569808499275262
-9.78280003051811e-05
0.00010333943694209132
0.0004478042267490647
0.0009024977492942696
0.0013875041733424878
0.0017898390478370328
0.002002029358358128
0.001938647837033645
0.0015556029907682909
0.0009465892423895617
8.68051270313566e-05
-0.0005552772411688418
-0.0005800787060349438
-0.00045882710002288904
-0.00037891126878767127
-0.00031828546578164407
-0.0002686825360494398
-0.00023010247959105888
-0.00021356816968032413
-0.00021356816968032413
-0.0002108124513618684
-0.00019703385976958942
-0.00018325526817731047
-0.00018049954985885472
-0.00018325526817731047
-0.00018325526817731047
-0.00017223239490348733
-0.00015569808499275262
-0.00014743093003738526
-0.00015294236667429682
-0.00015294236667429682
-0.0001364080567635621
-0.0001198737468528274
-0.0001198737468528274
-0.00012538518348973897
-0.00012538518348973897
-0.0001198737468528274
-0.00010609515526054846
-0.00010058371862363688
-0.00010058371862363688
-0.00010058371862363688
-9.507228198672531e-05
-8.404940871290214e-05
-8.129369039444639e-05
-8.404940871290214e-05
-8.680512703135793e-05
-8.680512703135793e-05
-8.129369039444639e-05
-7.57822537575348e-05
-7.57822537575348e-05
-8.129369039444639e-05
-8.129369039444639e-05
-7.027081712062322e-05
-5.9247943846800084e-05
-5.9247943846800084e-05
-5.098078889143272e-05
-3.720219729915378e-05
-2.342360570687485e-05
-2.066788738841907e-05
-3.169076066224221e-05
-3.995791561760957e-05
-4.5469352254521147e-05
-4.5469352254521147e-05
-5.3736507209888505e-05
-6.751509880216745e-05
-8.129369039444639e-05
-8.956084534981374e-05
-8.680512703135793e-05
-8.956084534981374e-05
-9.231656366826955e-05
-0.00010333943694209268
-0.00010885087357900426
-0.00010609515526054846
-0.00010058371862363688
-0.00010333943694209268
-0.00011160659189746003
-0.0001171180285343716
-0.00011160659189746003
-0.00010333943694209268
-0.00010333943694209268
-0.00011436231021591582
-0.0001198737468528274
-0.00011436231021591582
-0.00010609515526054846
-0.00010333943694209268
-0.00011160659189746003
-0.00011436231021591582
-0.00010333943694209268
-7.85379720759906e-05
-5.6492225528344285e-05
-4.5469352254521147e-05
-3.995791561760957e-05
-2.6179324025330647e-05
-9.64501411459592e-06
1.3778591592272275e-06
9.64501411459459e-06
2.3423605706873515e-05
4.271363393606403e-05
6.751509880216611e-05
7.578225375753347e-05
6.751509880216611e-05
5.373650720988717e-05
4.82250705729756e-05
4.271363393606403e-05
4.271363393606403e-05
3.720219729915245e-05
2.066788738841773e-05
1.3778591592272275e-06
-6.889295796140132e-06
-1.5156450751507488e-05
-3.4446478980697995e-05
-5.9247943846800084e-05
-7.302653543907902e-05
-7.302653543907902e-05
-6.200366216525588e-05
-6.200366216525588e-05
-7.302653543907902e-05
-8.404940871290214e-05
-8.404940871290214e-05
-7.85379720759906e-05
-8.129369039444639e-05
-9.78280003051811e-05
-0.00011160659189746003
-0.0001171180285343716
-0.00011436231021591582
-0.0001198737468528274
-7.57822537575348e-05
9.507228198672396e-05
0.00041749132524605104
0.0008832077210650791
0.0013930156099793995
0.0017870833295185766
0.00195518214694438
0.001806373357747768
0.001332389806973372
0.0006710174105439835
-0.00018325526817731047
-0.0006489716639963384
-0.0005718115510795765
-0.0004285141985198755
-0.0003458426489662019
-0.00029072828259708617
-0.00024939250782024937
-0.00021632388799877996
-0.00018876670481422206
-0.0001777438315403989
-0.0001777438315403989
-0.00018049954985885472
-0.00017498811322194308
-0.0001612095216296642
-0.00014743093003738526
-0.00014467521171892948
-0.00014743093003738526
-0.00014191949340047367
-0.00012814090180819475
-0.0001171180285343716
-0.00011160659189746003
-0.00011160659189746003
-0.00011160659189746003
-0.00010058371862363688
-8.680512703135793e-05
-8.404940871290214e-05
-8.680512703135793e-05
-8.404940871290214e-05
-7.85379720759906e-05
-6.475938048371164e-05
-5.6492225528344285e-05
-5.9247943846800084e-05
-6.475938048371164e-05
-6.475938048371164e-05
-5.098078889143272e-05
-4.2713633936065354e-05
-4.5469352254521147e-05
-4.8225070572976926e-05
-4.5469352254521147e-05
-3.4446478980697995e-05
-2.066788738841907e-05
-2.066788738841907e-05
-2.342360570687485e-05
-1.7912169069963278e-05
1.3778591592272275e-06
1.7912169069961946e-05
2.3423605706873515e-05
2.6179324025329308e-05
3.169076066224089e-05
3.9957915617608246e-05
4.82250705729756e-05
4.546935225451981e-05
2.8935042343785094e-05
9.64501411459459e-06
1.2400732433050376e-05
1.2400732433050376e-05
4.133577477683014e-06
-9.64501411459592e-06
-2.066788738841907e-05
-2.066788738841907e-05
-3.169076066224221e-05
-4.8225070572976926e-05
-6.751509880216745e-05
-8.129369039444639e-05
-8.956084534981374e-05
-8.956084534981374e-05
-9.507228198672531e-05
-0.00010609515526054846
-0.00011160659189746003
-0.00010333943694209268
-8.956084534981374e-05
-8.680512703135793e-05
-8.956084534981374e-05
-8.680512703135793e-05
-7.57822537575348e-05
-5.9247943846800084e-05
-4.8225070572976926e-05
-3.995791561760957e-05
-2.8935042343786426e-05
-6.889295796140132e-06
2.3423605706873515e-05
3.9957915617608246e-05
3.720219729915245e-05
2.8935042343785094e-05
3.9957915617608246e-05
6.475938048371032e-05
9.23165636682682e-05
0.00010609515526054714
0.00010058371862363556
8.956084534981241e-05
9.23165636682682e-05
8.956084534981241e-05
7.578225375753347e-05
5.373650720988717e-05
4.82250705729756e-05
4.546935225451981e-05
3.169076066224089e-05
1.2400732433050376e-05
-9.64501411459592e-06
-2.8935042343786426e-05
-4.5469352254521147e-05
-4.8225070572976926e-05
-5.3736507209888505e-05
-6.475938048371164e-05
-7.57822537575348e-05
-7.85379720759906e-05
-7.57822537575348e-05
-7.302653543907902e-05
-7.85379720759906e-05
-8.956084534981374e-05
-9.231656366826955e-05
-9.231656366826955e-05
-9.507228198672531e-05
-0.00011160659189746003
-0.00012814090180819475
-0.00014191949340047367
-0.0001198737468528274
6.8892957961388014e-06
0.00026592681773098274
0.0006599945372701603
0.0011753138628213923
0.001946914991989013
0.001938647837033645
0.0015556029907682909
0.000949344960708018
0.00016120952162966288
-0.0005304757763027395
-0.0006324373540856038
-0.0004918957198443586
-0.0003954455786984061
-0.0003293083390554673
-0.00026592681773098404
-0.0002190796063172357
-0.0001997895780880452
-0.00019427814145113364
-0.00019427814145113364
-0.00017498811322194308
-0.00016396523994811996
-0.0001612095216296642
-0.0001612095216296642
-0.00015569808499275262
-0.00014191949340047367
-0.00012814090180819475
-0.00012538518348973897
-0.00013089662012665053
-0.00012538518348973897
-0.00011436231021591582
-9.78280003051811e-05
-9.231656366826955e-05
-9.507228198672531e-05
-9.507228198672531e-05
-8.680512703135793e-05
-7.302653543907902e-05
-6.200366216525588e-05
-6.475938048371164e-05
-7.027081712062322e-05
-6.200366216525588e-05
-5.098078889143272e-05
-4.5469352254521147e-05
-4.8225070572976926e-05
-5.098078889143272e-05
-4.2713633936065354e-05
-3.169076066224221e-05
-2.066788738841907e-05
-1.7912169069963278e-05
-2.342360570687485e-05
-1.7912169069963278e-05
-1.377859159228559e-06
1.7912169069961946e-05
2.6179324025329308e-05
2.8935042343785094e-05
3.720219729915245e-05
5.649222552834297e-05
7.30265354390777e-05
7.853797207598924e-05
7.30265354390777e-05
6.475938048371032e-05
6.200366216525454e-05
6.475938048371032e-05
5.9247943846798756e-05
4.271363393606403e-05
3.169076066224089e-05
2.3423605706873515e-05
2.066788738841773e-05
9.64501411459459e-06
-1.5156450751507488e-05
-4.2713633936065354e-05
-6.475938048371164e-05
-7.57822537575348e-05
-8.956084534981374e-05
-0.00012814090180819475
-0.0001364080567635621
-0.0001336523384451063
-0.00012814090180819475
-0.00012814090180819475
-0.0001336523384451063
-0.0001336523384451063
-0.0001198737468528274
-0.00010333943694209268
-9.231656366826955e-05
-9.231656366826955e-05
-8.956084534981374e-05
-7.027081712062322e-05
-4.5469352254521147e-05
-2.8935042343786426e-05
-1.5156450751507488e-05
-4.133577477684346e-06
4.133577477683014e-06
1.2400732433050376e-05
2.3423605706873515e-05
3.444647898069667e-05
4.546935225451981e-05
6.751509880216611e-05
8.129369039444505e-05
7.853797207598924e-05
7.02708171206219e-05
5.649222552834297e-05
4.271363393606403e-05
3.9957915617608246e-05
3.720219729915245e-05
2.8935042343785094e-05
1.3778591592272275e-06
-2.066788738841907e-05
-2.8935042343786426e-05
-3.4446478980697995e-05
-5.3736507209888505e-05
-7.85379720759906e-05
-8.956084534981374e-05
-8.956084534981374e-05
-8.404940871290214e-05
-8.680512703135793e-05
-9.78280003051811e-05
-0.00010609515526054846
-0.00010609515526054846
-9.78280003051811e-05
-9.507228198672531e-05
-0.00010333943694209268
-0.0001171180285343716
-0.00013089662012665053
-0.0001364080567635621
-0.00014191949340047367
-0.00014467521171892948
-5.098078889143272e-05
0.00018601098649576498
0.0005690558327611192
0.0010843751583123511
0.0015969387655451277
0.0019496707103074684
0.0020543880064087887
0.0017981062027924003
0.0012552296940566102
0.0005029185931181804
-0.0003485983672846577
-0.00065448310063325
-0.0005387429312581068
-0.00041197988860914084
-0.0003430869306477461
-0.0002962397192339978
-0.00022734676127260308
-0.00020530101472495681
-0.00019427814145113364
-0.00019703385976958942
-0.0001997895780880452
-0.00019152242313267784
-0.0001777438315403989
-0.00016396523994811996
-0.0001584538033112084
-0.0001612095216296642
-0.0001584538033112084
-0.00014743093003738526
-0.00013089662012665053
-0.00012814090180819475
-0.00013089662012665053
-0.00013089662012665053
-0.0001198737468528274
-0.00010333943694209268
-9.78280003051811e-05
-0.00010058371862363688
-0.00010609515526054846
-9.78280003051811e-05
-8.956084534981374e-05
-8.129369039444639e-05
-8.680512703135793e-05
-9.231656366826955e-05
-8.680512703135793e-05
-7.027081712062322e-05
-6.200366216525588e-05
-6.751509880216745e-05
-7.027081712062322e-05
-6.751509880216745e-05
-5.3736507209888505e-05
-3.995791561760957e-05
-3.720219729915378e-05
-3.995791561760957e-05
-2.8935042343786426e-05
-9.64501411459592e-06
9.64501411459459e-06
2.3423605706873515e-05
2.8935042343785094e-05
3.444647898069667e-05
3.9957915617608246e-05
4.82250705729756e-05
4.82250705729756e-05
3.169076066224089e-05
1.5156450751506162e-05
6.8892957961388014e-06
9.64501411459459e-06
9.64501411459459e-06
-4.133577477684346e-06
-1.7912169069963278e-05
-2.6179324025330647e-05
-3.169076066224221e-05
-4.2713633936065354e-05
-6.475938048371164e-05
-8.404940871290214e-05
-0.00010058371862363688
-0.00010609515526054846
-0.00010885087357900426
-0.0001198737468528274
-0.0001336523384451063
-0.0001391637750820179
-0.00012814090180819475
-0.0001198737468528274
-0.0001171180285343716
-0.0001198737468528274
-0.0001198737468528274
-8.680512703135793e-05
-7.027081712062322e-05
-5.9247943846800084e-05
-4.8225070572976926e-05
-2.6179324025330647e-05
-1.377859159228559e-06
1.2400732433050376e-05
1.2400732433050376e-05
1.2400732433050376e-05
2.8935042343785094e-05
5.9247943846798756e-05
8.129369039444505e-05
8.68051270313566e-05
8.129369039444505e-05
7.30265354390777e-05
7.578225375753347e-05
7.30265354390777e-05
5.9247943846798756e-05
3.720219729915245e-05
2.8935042343785094e-05
1.7912169069961946e-05
6.8892957961388014e-06
-9.64501411459592e-06
-3.169076066224221e-05
-5.3736507209888505e-05
-6.475938048371164e-05
-6.751509880216745e-05
-7.57822537575348e-05
-8.680512703135793e-05
-9.78280003051811e-05
-9.78280003051811e-05
-9.231656366826955e-05
-9.231656366826955e-05
-0.00010333943694209268
-0.00011160659189746003
-0.00011436231021591582
-0.00011160659189746003
-0.0001198737468528274
-0.00014191949340047367
-0.0001584538033112084
-0.00016672095826657574
-9.78280003051811e-05
0.00010885087357900291
0.0004588271000228878
0.0009465892423895617
0.0014839543144884403
0.0019110906538490876
0.002115013809414816
0.0019799836118104823
0.0014977329060807197
0.0008115590447852286
-7.302653543907902e-05
-0.0006076358892195017
-0.0005690558327611206
-0.00045331566338597764
-0.0003844227054245829
-0.0003210411841000998
-0.0002631710994125282
-0.00023010247959105888
-0.00021632388799877996
-0.00021632388799877996
-0.00021356816968032413
-0.00020254529640650095
-0.00019152242313267784
-0.00018601098649576628
-0.00018601098649576628
-0.00018049954985885472
-0.00016947667658503157
-0.00015569808499275262
-0.0001584538033112084
-0.00015294236667429682
-0.00014191949340047367
-0.00012814090180819475
-0.0001226294651712832
-0.00012814090180819475
-0.00013089662012665053
-0.0001198737468528274
-0.00010333943694209268
-9.507228198672531e-05
-0.00010058371862363688
-0.00010333943694209268
-9.78280003051811e-05
-8.680512703135793e-05
-7.85379720759906e-05
-8.129369039444639e-05
-8.680512703135793e-05
-7.85379720759906e-05
-6.200366216525588e-05
-5.3736507209888505e-05
-5.6492225528344285e-05
-5.9247943846800084e-05
-5.098078889143272e-05
-3.4446478980697995e-05
-1.5156450751507488e-05
-9.64501411459592e-06
-9.64501411459592e-06
4.133577477683014e-06
2.6179324025329308e-05
4.546935225451981e-05
4.82250705729756e-05
3.9957915617608246e-05
2.6179324025329308e-05
2.066788738841773e-05
1.7912169069961946e-05
9.64501411459459e-06
-6.889295796140132e-06
-2.342360570687485e-05
-2.6179324025330647e-05
-2.8935042343786426e-05
-2.8935042343786426e-05
-4.2713633936065354e-05
-6.475938048371164e-05
-7.57822537575348e-05
-8.129369039444639e-05
-9.507228198672531e-05
-0.00011160659189746003
-0.00012814090180819475
-0.0001336523384451063
-0.0001364080567635621
-0.0001336523384451063
-0.0001336523384451063
-0.00014467521171892948
-0.000150186648355841
-0.00014191949340047367
-0.00013089662012665053
-0.00012538518348973897
-0.00012538518348973897
-0.0001171180285343716
-9.507228198672531e-05
-6.751509880216745e-05
-4.8225070572976926e-05
-3.995791561760957e-05
-3.4446478980697995e-05
-2.342360570687485e-05
-4.133577477684346e-06
1.2400732433050376e-05
2.6179324025329308e-05
5.649222552834297e-05
6.751509880216611e-05
7.02708171206219e-05
6.475938048371032e-05
4.82250705729756e-05
3.444647898069667e-05
2.8935042343785094e-05
3.169076066224089e-05
1.7912169069961946e-05
-6.889295796140132e-06
-2.342360570687485e-05
-3.169076066224221e-05
-3.995791561760957e-05
-5.6492225528344285e-05
-7.85379720759906e-05
-8.956084534981374e-05
-8.956084534981374e-05
-8.404940871290214e-05
-8.404940871290214e-05
-9.78280003051811e-05
-0.00010609515526054846
-0.00010609515526054846
-0.00010058371862363688
-0.00010333943694209268
-0.00011160659189746003
-0.00012538518348973897
-0.0001364080567635621
-0.0001391637750820179
-0.00014467521171892948
-0.0001226294651712832
2.066788738841773e-05
0.00032104118410009855
0.0007757347066453035
0.0013268783703364606
0.0018118847943846788
0.00211225809109636
0.0021343038376440064
0.0017898390478370328
0.0011890924544136717
0.0003568655222400236
-0.000447804226749066
-0.0006241701991302363
-0.0004918957198443586
-0.0003871784237430386
-0.0003210411841000998
-0.0002824611276417188
-0.0002521482261387052
-0.00022459104295414727
-0.00020254529640650095
-0.00019427814145113364
-0.00019703385976958942
-0.0001997895780880452
-0.00019152242313267784
-0.00018049954985885472
-0.00016947667658503157
-0.00016672095826657574
-0.00016672095826657574
-0.00016396523994811996
-0.00014743093003738526
-0.0001364080567635621
-0.0001364080567635621
-0.0001364080567635621
-0.0001364080567635621
-0.00012538518348973897
-0.00011436231021591582
-0.00010885087357900426
-0.00011160659189746003
-0.00011160659189746003
-9.231656366826955e-05
-8.680512703135793e-05
-8.956084534981374e-05
-9.231656366826955e-05
-8.956084534981374e-05
-7.85379720759906e-05
-6.751509880216745e-05
-6.751509880216745e-05
-7.302653543907902e-05
-6.751509880216745e-05
-5.3736507209888505e-05
-4.5469352254521147e-05
-3.995791561760957e-05
-3.4446478980697995e-05
-2.8935042343786426e-05
-9.64501411459592e-06
9.64501411459459e-06
2.066788738841773e-05
2.8935042343785094e-05
3.444647898069667e-05
4.271363393606403e-05
5.373650720988717e-05
4.82250705729756e-05
2.8935042343785094e-05
1.2400732433050376e-05
6.8892957961388014e-06
6.8892957961388014e-06
-1.377859159228559e-06
-1.7912169069963278e-05
-2.8935042343786426e-05
-3.169076066224221e-05
-3.4446478980697995e-05
-3.995791561760957e-05
-5.6492225528344285e-05
-7.85379720759906e-05
-9.231656366826955e-05
-9.231656366826955e-05
-9.507228198672531e-05
-0.00010609515526054846
-0.00011436231021591582
-0.0001226294651712832
-0.0001171180285343716
-0.00010609515526054846
-0.00010609515526054846
-0.0001171180285343716
-0.00011436231021591582
-0.00010058371862363688
-8.404940871290214e-05
-7.027081712062322e-05
-6.200366216525588e-05
-5.098078889143272e-05
-2.6179324025330647e-05
1.3778591592272275e-06
1.2400732433050376e-05
9.64501411459459e-06
1.5156450751506162e-05
3.444647898069667e-05
5.9247943846798756e-05
8.129369039444505e-05
8.404940871290084e-05
7.578225375753347e-05
7.02708171206219e-05
7.578225375753347e-05
7.30265354390777e-05
5.9247943846798756e-05
4.546935225451981e-05
3.720219729915245e-05
2.6179324025329308e-05
-4.133577477684346e-06
-2.6179324025330647e-05
-4.8225070572976926e-05
-6.475938048371164e-05
-6.751509880216745e-05
-7.027081712062322e-05
-8.404940871290214e-05
-9.78280003051811e-05
-9.78280003051811e-05
-9.231656366826955e-05
-9.507228198672531e-05
-0.00010333943694209268
-0.00011436231021591582
-0.00011436231021591582
-0.0001171180285343716
-0.0001198737468528274
-0.00013089662012665053
-0.00014467521171892948
-0.00013089662012665053
-3.169076066224221e-05
0.00020805673304341124
0.0005663001144426635
0.0010320165102616916
0.0015060000610360867
0.001855976287479972
0.002015807949950408
0.0018807777523460734
0.001453641412985427
0.0007950247348744939
-0.00012538518348973897
-0.0006379487907225153
-0.000577322987716488
-0.00045331566338597764
-0.00037339983215075977
-0.00030726259250782084
-0.0002549039444571609
-0.0002218353246356915
-0.0002108124513618684
-0.0002108124513618684
-0.0002080567330434125
-0.00019152242313267784
-0.00018049954985885472
-0.0001777438315403989
-0.0001777438315403989
-0.00017223239490348733
-0.0001584538033112084
-0.00014743093003738526
-0.00014467521171892948
-0.00014467521171892948
-0.0001364080567635621
-0.00012538518348973897
-0.00011436231021591582
-0.0001171180285343716
-0.0001171180285343716
-0.00011436231021591582
-0.00010333943694209268
-9.231656366826955e-05
-8.404940871290214e-05
-8.956084534981374e-05
-9.231656366826955e-05
-8.129369039444639e-05
-6.751509880216745e-05
-6.475938048371164e-05
-6.751509880216745e-05
-6.751509880216745e-05
-6.475938048371164e-05
-5.098078889143272e-05
-4.2713633936065354e-05
-3.995791561760957e-05
-3.169076066224221e-05
-1.5156450751507488e-05
1.3778591592272275e-06
9.64501411459459e-06
1.7912169069961946e-05
3.444647898069667e-05
5.373650720988717e-05
7.30265354390777e-05
7.853797207598924e-05
7.02708171206219e-05
6.200366216525454e-05
5.649222552834297e-05
5.098078889143139e-05
3.444647898069667e-05
1.5156450751506162e-05
1.3778591592272275e-06
-4.133577477684346e-06
-1.240073243305171e-05
-2.066788738841907e-05
-3.995791561760957e-05
-6.200366216525588e-05
-7.027081712062322e-05
-7.57822537575348e-05
-8.404940871290214e-05
-9.78280003051811e-05
-0.00011436231021591582
-0.0001198737468528274
-0.0001198737468528274
-0.0001198737468528274
-0.00012814090180819475
-0.0001391637750820179
-0.00014467521171892948
-0.0001364080567635621
-0.00012538518348973897
-0.00012538518348973897
-0.00013089662012665053
-0.00012814090180819475
-0.00010885087357900426
-8.680512703135793e-05
-6.751509880216745e-05
-5.3736507209888505e-05
-3.995791561760957e-05
-2.8935042343786426e-05
-1.240073243305171e-05
-1.377859159228559e-06
6.8892957961388014e-06
2.066788738841773e-05
3.9957915617608246e-05
5.9247943846798756e-05
6.200366216525454e-05
5.098078889143139e-05
3.9957915617608246e-05
3.444647898069667e-05
2.8935042343785094e-05
2.6179324025329308e-05
2.066788738841773e-05
-6.889295796140132e-06
-2.6179324025330647e-05
-3.169076066224221e-05
-3.995791561760957e-05
-6.200366216525588e-05
-8.956084534981374e-05
-0.00010333943694209268
-0.00010058371862363688
-9.78280003051811e-05
-0.00010333943694209268
-0.00011436231021591582
-0.0001171180285343716
-0.00010885087357900426
-0.00011160659189746003
-0.0001226294651712832
-0.0001336523384451063
-0.00014191949340047367
-0.00014191949340047367
-0.00012814090180819475
-0.00010885087357900426
-2.8935042343786426e-05
0.00018876670481422076
0.0005414986495765614
0.0009906807354848547
0.0014150613565270462
0.0017237018081940941
0.0018669991607537949
0.001773304737926298
0.0014150613565270462
0.0007977804531929496
-0.00011436231021591582
-0.0006434602273594267
-0.0005828344243533996
-0.00044504850843061025
-0.0003568655222400251
-0.00030175115587090934
-0.0002631710994125282
-0.00022734676127260308
-0.0001997895780880452
-0.00019152242313267784
-0.00019703385976958942
-0.00019703385976958942
-0.00018601098649576628
-0.00017498811322194308
-0.00016396523994811996
-0.0001612095216296642
-0.00016396523994811996
-0.0001584538033112084
-0.00014743093003738526
-0.0001364080567635621
-0.0001336523384451063
-0.0001391637750820179
-0.0001364080567635621
-0.0001226294651712832
-0.00010609515526054846
-0.00010333943694209268
-0.00010885087357900426
-0.00010885087357900426
-0.00010333943694209268
-9.231656366826955e-05
-8.956084534981374e-05
-9.231656366826955e-05
-9.78280003051811e-05
-8.956084534981374e-05
-7.57822537575348e-05
-7.027081712062322e-05
-7.302653543907902e-05
-7.57822537575348e-05
-7.302653543907902e-05
-5.9247943846800084e-05
-5.098078889143272e-05
-4.8225070572976926e-05
-5.098078889143272e-05
-4.5469352254521147e-05
-2.6179324025330647e-05
-6.889295796140132e-06
4.133577477683014e-06
6.8892957961388014e-06
1.7912169069961946e-05
2.8935042343785094e-05
2.8935042343785094e-05
1.2400732433050376e-05
-1.377859159228559e-06
-9.64501411459592e-06
-1.240073243305171e-05
-1.7912169069963278e-05
-3.4446478980697995e-05
-5.098078889143272e-05
-5.6492225528344285e-05
-5.3736507209888505e-05
-6.200366216525588e-05
-7.57822537575348e-05
-8.956084534981374e-05
-9.78280003051811e-05
-9.507228198672531e-05
-9.231656366826955e-05
-0.00010058371862363688
-0.00010885087357900426
-0.00011436231021591582
-0.00010885087357900426
-0.00010609515526054846
-0.00011160659189746003
-0.0001198737468528274
-0.0001198737468528274
-0.00011436231021591582
-0.00010333943694209268
-0.00010333943694209268
-0.00010885087357900426
-9.78280003051811e-05
-7.302653543907902e-05
-4.8225070572976926e-05
-3.169076066224221e-05
-2.8935042343786426e-05
-2.342360570687485e-05
-1.240073243305171e-05
6.8892957961388014e-06
3.169076066224089e-05
4.546935225451981e-05
5.373650720988717e-05
5.9247943846798756e-05
6.475938048371032e-05
6.751509880216611e-05
5.9247943846798756e-05
4.271363393606403e-05
3.169076066224089e-05
3.169076066224089e-05
2.8935042343785094e-05
4.133577477683014e-06
-1.7912169069963278e-05
-3.169076066224221e-05
-4.2713633936065354e-05
-5.6492225528344285e-05
-7.302653543907902e-05
-8.680512703135793e-05
-9.78280003051811e-05
-9.78280003051811e-05
-9.507228198672531e-05
-9.231656366826955e-05
-0.00010333943694209268
-0.00011160659189746003
-0.00010885087357900426
-0.00010609515526054846
-0.00010885087357900426
-0.0001226294651712832
-0.0001391637750820179
-0.00014743093003738526
-0.00014191949340047367
-0.00010885087357900426
0.0002989954375524522
0.0007233760585946433
0.0012138939192797731
0.0016410302586404204
0.001905579217212176
0.001938647837033645
0.001671343160143434
0.001169802426184481
0.0004092241702906837
-0.00040371273365377345
-0.0006214144808117806
-0.0005029185931181816
-0.0003954455786984061
-0.0003210411841000998
-0.0002686825360494398
-0.00023561391622797047
-0.00021632388799877996
-0.00020530101472495681
-0.00019703385976958942
-0.00018601098649576628
-0.00018876670481422206
-0.00019152242313267784
-0.00018601098649576628
-0.00017223239490348733
-0.0001612095216296642
-0.0001612095216296642
-0.0001612095216296642
-0.00015294236667429682
-0.00014191949340047367
-0.00012814090180819475
-0.00012538518348973897
-0.00012814090180819475
-0.0001226294651712832
-0.0001171180285343716
-0.00010609515526054846
-0.00010058371862363688
-0.00010609515526054846
-0.00010885087357900426
-0.00010058371862363688
-8.680512703135793e-05
-8.404940871290214e-05
-9.231656366826955e-05
-9.507228198672531e-05
-8.680512703135793e-05
-7.57822537575348e-05
-7.302653543907902e-05
-7.85379720759906e-05
-8.404940871290214e-05
-8.129369039444639e-05
-7.027081712062322e-05
-6.200366216525588e-05
-5.9247943846800084e-05
-6.475938048371164e-05
-6.200366216525588e-05
-4.8225070572976926e-05
-2.8935042343786426e-05
-2.342360570687485e-05
-2.8935042343786426e-05
-3.4446478980697995e-05
-3.4446478980697995e-05
-3.4446478980697995e-05
-4.5469352254521147e-05
-5.9247943846800084e-05
-7.302653543907902e-05
-7.302653543907902e-05
-7.57822537575348e-05
-7.85379720759906e-05
-9.231656366826955e-05
-0.00010333943694209268
-9.507228198672531e-05
-9.507228198672531e-05
-0.00010333943694209268
-0.00011436231021591582
-0.00011436231021591582
-0.00010609515526054846
-0.00010058371862363688
-0.00010885087357900426
-0.0001171180285343716
-0.0001198737468528274
-0.0001171180285343716
-0.00010885087357900426
-0.00010609515526054846
-0.00011160659189746003
-0.00011436231021591582
-0.00010333943694209268
-8.956084534981374e-05
-8.129369039444639e-05
-7.57822537575348e-05
-6.475938048371164e-05
-4.5469352254521147e-05
-1.7912169069963278e-05
-4.133577477684346e-06
-9.64501411459592e-06
-1.240073243305171e-05
4.133577477683014e-06
3.169076066224089e-05
5.373650720988717e-05
6.200366216525454e-05
6.200366216525454e-05
5.373650720988717e-05
5.9247943846798756e-05
6.200366216525454e-05
4.82250705729756e-05
2.8935042343785094e-05
2.3423605706873515e-05
1.7912169069961946e-05
6.8892957961388014e-06
-1.240073243305171e-05
-3.169076066224221e-05
-5.098078889143272e-05
-6.475938048371164e-05
-6.751509880216745e-05
-6.751509880216745e-05
-7.85379720759906e-05
-8.956084534981374e-05
-8.680512703135793e-05
-7.85379720759906e-05
-8.129369039444639e-05
-9.231656366826955e-05
-0.00010058371862363688
-0.00010058371862363688
-0.00010058371862363688
-0.00010609515526054846
-0.0001226294651712832
-0.0001364080567635621
-0.00014191949340047367
-9.507228198672531e-05
6.475938048371032e-05
0.00035135408560311223
0.0007784904249637591
0.0012910540321965354
0.0017154346532387268
0.0019358921187151898
0.001833930540932325
0.001379237018387121
0.0007316432135500107
-9.507228198672531e-05
-0.0005938572976272227
-0.0004615828183413449
-0.00037615555046921565
-0.0003045068741893651
-0.00024388107118333775
-0.00020530101472495681
-0.00018876670481422206
-0.00018876670481422206
-0.00018325526817731047
-0.00016947667658503157
-0.0001584538033112084
-0.0001584538033112084
-0.0001612095216296642
-0.00015294236667429682
-0.00014191949340047367
-0.00012538518348973897
-0.00012538518348973897
-0.0001226294651712832
-0.0001171180285343716
-0.00010609515526054846
-9.78280003051811e-05
-9.507228198672531e-05
-9.507228198672531e-05
-9.231656366826955e-05
-8.404940871290214e-05
-7.302653543907902e-05
-6.751509880216745e-05
-7.027081712062322e-05
-7.027081712062322e-05
-6.200366216525588e-05
-5.098078889143272e-05
-4.8225070572976926e-05
-4.8225070572976926e-05
-5.098078889143272e-05
-4.5469352254521147e-05
-2.8935042343786426e-05
-2.066788738841907e-05
-2.342360570687485e-05
-2.6179324025330647e-05
-2.342360570687485e-05
-9.64501411459592e-06
4.133577477683014e-06
9.64501411459459e-06
1.2400732433050376e-05
2.6179324025329308e-05
4.271363393606403e-05
5.649222552834297e-05
5.9247943846798756e-05
5.098078889143139e-05
4.546935225451981e-05
4.82250705729756e-05
5.373650720988717e-05
4.546935225451981e-05
3.169076066224089e-05
1.7912169069961946e-05
1.5156450751506162e-05
1.2400732433050376e-05
-4.133577477684346e-06
-2.6179324025330647e-05
-5.098078889143272e-05
-6.475938048371164e-05
-7.027081712062322e-05
-7.57822537575348e-05
-9.507228198672531e-05
-0.00010885087357900426
-0.00011160659189746003
-0.00010609515526054846
-9.78280003051811e-05
-9.78280003051811e-05
-8.956084534981374e-05
-7.57822537575348e-05
-6.200366216525588e-05
-5.6492225528344285e-05
-5.3736507209888505e-05
-4.8225070572976926e-05
-3.169076066224221e-05
-9.64501411459592e-06
4.133577477683014e-06
1.5156450751506162e-05
2.6179324025329308e-05
3.444647898069667e-05
4.271363393606403e-05
4.82250705729756e-05
5.098078889143139e-05
5.649222552834297e-05
7.578225375753347e-05
9.782800030517979e-05
0.00010058371862363556
8.68051270313566e-05
7.02708171206219e-05
6.200366216525454e-05
5.649222552834297e-05
5.373650720988717e-05
4.271363393606403e-05
2.3423605706873515e-05
6.8892957961388014e-06
-1.377859159228559e-06
-9.64501411459592e-06
-3.169076066224221e-05
-5.9247943846800084e-05
-7.027081712062322e-05
-7.027081712062322e-05
-6.751509880216745e-05
-6.751509880216745e-05
-7.85379720759906e-05
-8.680512703135793e-05
-8.680512703135793e-05
-8.404940871290214e-05
-8.404940871290214e-05
-9.231656366826955e-05
-0.00010333943694209268
-0.00011160659189746003
-0.0001171180285343716
-0.0001198737468528274
-0.0001336523384451063
-0.0001198737468528274
1.7912169069961946e-05
0.00029072828259708476
0.0006958188754100854
0.001205626764324406
0.001657564568551155
0.0019110906538490876
0.0018697548790722507
0.00146466428625925
0.0008336047913328749
1.3778591592272275e-06
-0.0006241701991302363
-0.0006379487907225153
-0.00047260569161516804
-0.00037339983215075977
-0.00031828546578164407
-0.00026592681773098404
-0.00022459104295414727
-0.00018876670481422206
-0.00017498811322194308
-0.00018325526817731047
-0.00018601098649576628
-0.00015569808499275262
-0.00014191949340047367
-0.00014191949340047367
-0.00014191949340047367
-0.0001336523384451063
-0.0001198737468528274
-0.00010609515526054846
-0.00010333943694209268
-0.00010609515526054846
-0.00010058371862363688
-8.956084534981374e-05
-7.85379720759906e-05
-7.57822537575348e-05
-7.57822537575348e-05
-7.027081712062322e-05
-6.475938048371164e-05
-5.098078889143272e-05
-4.5469352254521147e-05
-4.5469352254521147e-05
-4.5469352254521147e-05
-3.995791561760957e-05
-2.8935042343786426e-05
-2.066788738841907e-05
-2.066788738841907e-05
-2.6179324025330647e-05
-1.5156450751507488e-05
-1.377859159228559e-06
9.64501411459459e-06
1.2400732433050376e-05
1.2400732433050376e-05
2.8935042343785094e-05
4.82250705729756e-05
7.02708171206219e-05
8.404940871290084e-05
8.68051270313566e-05
9.507228198672396e-05
0.00011160659189745871
0.00012262946517128183
0.00011987374685282605
0.00010609515526054714
9.782800030517979e-05
9.507228198672396e-05
9.23165636682682e-05
8.129369039444505e-05
5.649222552834297e-05
3.169076066224089e-05
1.5156450751506162e-05
-1.377859159228559e-06
-2.066788738841907e-05
-4.8225070572976926e-05
-7.57822537575348e-05
-8.680512703135793e-05
-8.956084534981374e-05
-9.78280003051811e-05
-0.00010885087357900426
-0.00011160659189746003
-0.00011160659189746003
-0.00010058371862363688
-8.680512703135793e-05
-8.129369039444639e-05
-8.404940871290214e-05
-7.85379720759906e-05
-6.475938048371164e-05
-4.8225070572976926e-05
-3.995791561760957e-05
-3.995791561760957e-05
-3.4446478980697995e-05
-1.5156450751507488e-05
2.3423605706873515e-05
2.6179324025329308e-05
1.7912169069961946e-05
2.066788738841773e-05
3.720219729915245e-05
5.649222552834297e-05
6.475938048371032e-05
7.30265354390777e-05
7.853797207598924e-05
7.853797207598924e-05
7.578225375753347e-05
6.475938048371032e-05
3.9957915617608246e-05
2.8935042343785094e-05
3.444647898069667e-05
3.169076066224089e-05
9.64501411459459e-06
-1.5156450751507488e-05
-3.169076066224221e-05
-4.2713633936065354e-05
-5.3736507209888505e-05
-6.751509880216745e-05
-8.129369039444639e-05
-8.956084534981374e-05
-8.404940871290214e-05
-8.129369039444639e-05
-8.404940871290214e-05
-9.507228198672531e-05
-0.00010058371862363688
-0.00010058371862363688
-9.231656366826955e-05
-9.231656366826955e-05
-0.00011160659189746003
-0.00013089662012665053
-0.0001391637750820179
-0.00014191949340047367
-0.0001171180285343716
1.7912169069961946e-05
0.0002879725642786291
0.0007123531853208202
0.0012497182574196988
0.0017374803997863729
0.002015807949950408
0.001993762203402761
0.0015941830472266717
0.000971390707255664
0.00015018664835583973
-0.0005470100862134743
-0.0006351930724040594
-0.0004946514381628143
-0.0003954455786984061
-0.00031828546578164407
-0.0002604153810940725
-0.00023010247959105888
-0.0002108124513618684
-0.00019427814145113364
-0.00018601098649576628
-0.0001777438315403989
-0.00017498811322194308
-0.00017498811322194308
-0.00016672095826657574
-0.00015569808499275262
-0.00014467521171892948
-0.0001391637750820179
-0.0001364080567635621
-0.0001336523384451063
-0.0001226294651712832
-0.00010609515526054846
-0.00010885087357900426
-0.00010333943694209268
-9.231656366826955e-05
-8.129369039444639e-05
-7.85379720759906e-05
-8.404940871290214e-05
-8.404940871290214e-05
-7.57822537575348e-05
-6.475938048371164e-05
-5.9247943846800084e-05
-5.9247943846800084e-05
-6.200366216525588e-05
-5.098078889143272e-05
-3.995791561760957e-05
-3.169076066224221e-05
-3.169076066224221e-05
-3.720219729915378e-05
-3.169076066224221e-05
-1.5156450751507488e-05
1.3778591592272275e-06
9.64501411459459e-06
1.5156450751506162e-05
2.6179324025329308e-05
4.82250705729756e-05
6.751509880216611e-05
7.578225375753347e-05
7.578225375753347e-05
7.02708171206219e-05
7.30265354390777e-05
7.30265354390777e-05
7.02708171206219e-05
5.649222552834297e-05
4.546935225451981e-05
4.271363393606403e-05
3.9957915617608246e-05
2.6179324025329308e-05
4.133577477683014e-06
-1.7912169069963278e-05
-3.720219729915378e-05
-4.8225070572976926e-05
-6.200366216525588e-05
-8.404940871290214e-05
-0.00010333943694209268
-0.00011436231021591582
-0.00011160659189746003
-0.00010609515526054846
-0.00011160659189746003
-0.0001198737468528274
-0.0001198737468528274
-0.00010609515526054846
-8.956084534981374e-05
-8.404940871290214e-05
-8.129369039444639e-05
-7.57822537575348e-05
-6.200366216525588e-05
-4.2713633936065354e-05
-2.342360570687485e-05
-1.5156450751507488e-05
-1.377859159228559e-06
1.7912169069961946e-05
3.720219729915245e-05
3.9957915617608246e-05
3.444647898069667e-05
3.720219729915245e-05
5.373650720988717e-05
7.578225375753347e-05
8.956084534981241e-05
8.68051270313566e-05
6.475938048371032e-05
6.751509880216611e-05
6.475938048371032e-05
4.82250705729756e-05
3.444647898069667e-05
2.066788738841773e-05
4.133577477683014e-06
-4.133577477684346e-06
-2.066788738841907e-05
-4.2713633936065354e-05
-6.475938048371164e-05
-7.302653543907902e-05
-7.302653543907902e-05
-7.85379720759906e-05
-8.956084534981374e-05
-9.78280003051811e-05
-9.231656366826955e-05
-8.956084534981374e-05
-9.231656366826955e-05
-0.00010609515526054846
-0.00011436231021591582
-0.00011436231021591582
-0.0001171180285343716
-0.00012538518348973897
-0.00014467521171892948
-0.00016672095826657574
-0.000150186648355841
-9.64501411459592e-06
0.00027143825436789435
0.0006847960021362622
0.0012083824826428621
0.0017071674982833593
0.0020350979781795973
0.002092968062867169
0.0017650375829709308
0.0011615352712291134
0.0003430869306477448
-0.0004560713817044334
-0.0006434602273594267
-0.0005084300297550932
-0.0004147356069275966
-0.0003485983672846577
-0.00029348400091554195
-0.0002466367895017936
-0.0002190796063172357
-0.00021356816968032413
-0.0002190796063172357
-0.0002108124513618684
-0.00019152242313267784
-0.00018325526817731047
-0.00018325526817731047
-0.00018325526817731047
-0.0001777438315403989
-0.0001612095216296642
-0.00014467521171892948
-0.00014467521171892948
-0.00014743093003738526
-0.00014467521171892948
-0.00013089662012665053
-0.0001171180285343716
-0.00011436231021591582
-0.0001198737468528274
-0.0001198737468528274
-0.00010885087357900426
-9.231656366826955e-05
-8.680512703135793e-05
-9.231656366826955e-05
-9.231656366826955e-05
-8.129369039444639e-05
-6.475938048371164e-05
-6.751509880216745e-05
-6.475938048371164e-05
-5.6492225528344285e-05
-3.995791561760957e-05
-3.4446478980697995e-05
-3.720219729915378e-05
-3.720219729915378e-05
-2.6179324025330647e-05
-6.889295796140132e-06
9.64501411459459e-06
1.7912169069961946e-05
2.6179324025329308e-05
3.9957915617608246e-05
5.649222552834297e-05
7.02708171206219e-05
6.751509880216611e-05
5.649222552834297e-05
4.546935225451981e-05
4.271363393606403e-05
3.9957915617608246e-05
2.8935042343785094e-05
1.2400732433050376e-05
-1.377859159228559e-06
-4.133577477684346e-06
-6.889295796140132e-06
-1.7912169069963278e-05
-3.995791561760957e-05
-6.475938048371164e-05
-7.85379720759906e-05
-8.956084534981374e-05
-9.78280003051811e-05
-0.0001171180285343716
-0.0001336523384451063
-0.0001391637750820179
-0.0001391637750820179
-0.0001336523384451063
-0.0001364080567635621
-0.00014191949340047367
-0.0001391637750820179
-0.00013089662012665053
-0.00011436231021591582
-0.00010609515526054846
-0.00010609515526054846
-9.507228198672531e-05
-7.302653543907902e-05
-4.8225070572976926e-05
-3.169076066224221e-05
-2.342360570687485e-05
-1.7912169069963278e-05
-6.889295796140132e-06
1.3778591592272275e-06
1.2400732433050376e-05
2.3423605706873515e-05
3.444647898069667e-05
5.098078889143139e-05
5.9247943846798756e-05
5.649222552834297e-05
4.82250705729756e-05
3.720219729915245e-05
2.6179324025329308e-05
2.066788738841773e-05
2.066788738841773e-05
4.133577477683014e-06
-2.066788738841907e-05
-3.4446478980697995e-05
-3.995791561760957e-05
-5.098078889143272e-05
-9.78280003051811e-05
-0.00010609515526054846
-0.00010058371862363688
-9.78280003051811e-05
-9.78280003051811e-05
-0.00011160659189746003
-0.0001171180285343716
-0.00011436231021591582
-0.00011160659189746003
-0.00011160659189746003
-0.0001226294651712832
-0.0001364080567635621
-0.000150186648355841
-0.000150186648355841
-0.00015569808499275262
-0.00014743093003738526
-2.8935042343786426e-05
0.00024388107118333642
0.000676528847180895
0.0012221610742351409
0.0017237018081940941
0.0020516322880903327
0.002109502372777904
0.001800861921110856
0.001224916792553597
0.00041197988860913943
-0.000423002761882964
-0.0006462159456778825
-0.0005166971847104609
-0.00040646845197222917
-0.0003430869306477461
-0.0002989954375524536
-0.0002686825360494398
-0.00024112535286488197
-0.00021632388799877996
-0.00021356816968032413
-0.0002108124513618684
-0.0002080567330434125
-0.00020254529640650095
-0.00019152242313267784
-0.0001777438315403989
-0.0001777438315403989
-0.00018049954985885472
-0.00017498811322194308
-0.0001584538033112084
-0.00014467521171892948
-0.00014467521171892948
-0.000150186648355841
-0.00014467521171892948
-0.0001336523384451063
-0.0001198737468528274
-0.0001171180285343716
-0.0001226294651712832
-0.0001198737468528274
-0.00011160659189746003
-9.78280003051811e-05
-9.231656366826955e-05
-9.507228198672531e-05
-9.78280003051811e-05
-8.680512703135793e-05
-7.57822537575348e-05
-7.302653543907902e-05
-7.57822537575348e-05
-7.85379720759906e-05
-7.027081712062322e-05
-5.6492225528344285e-05
-4.8225070572976926e-05
-4.2713633936065354e-05
-3.4446478980697995e-05
-1.240073243305171e-05
9.64501411459459e-06
1.7912169069961946e-05
2.6179324025329308e-05
3.444647898069667e-05
4.271363393606403e-05
4.82250705729756e-05
4.271363393606403e-05
2.3423605706873515e-05
9.64501411459459e-06
6.8892957961388014e-06
6.8892957961388014e-06
-1.377859159228559e-06
-1.7912169069963278e-05
-2.8935042343786426e-05
-3.4446478980697995e-05
-3.995791561760957e-05
-5.6492225528344285e-05
-7.85379720759906e-05
-0.00010058371862363688
-0.00011160659189746003
-0.00011160659189746003
-0.00011436231021591582
-0.00012538518348973897
-0.0001391637750820179
-0.00014467521171892948
-0.0001364080567635621
-0.00013089662012665053
-0.0001336523384451063
-0.0001391637750820179
-0.0001336523384451063
-0.0001198737468528274
-0.00010609515526054846
-9.507228198672531e-05
-8.404940871290214e-05
-7.027081712062322e-05
-4.5469352254521147e-05
-1.7912169069963278e-05
-4.133577477684346e-06
-6.889295796140132e-06
-6.889295796140132e-06
9.64501411459459e-06
3.720219729915245e-05
5.649222552834297e-05
6.200366216525454e-05
5.373650720988717e-05
4.82250705729756e-05
4.82250705729756e-05
4.82250705729756e-05
3.169076066224089e-05
1.5156450751506162e-05
9.64501411459459e-06
1.3778591592272275e-06
-1.5156450751507488e-05
-3.169076066224221e-05
-5.6492225528344285e-05
-7.57822537575348e-05
-8.956084534981374e-05
-9.507228198672531e-05
-0.00010333943694209268
-0.00011160659189746003
-0.0001226294651712832
-0.0001226294651712832
-0.0001171180285343716
-0.0001171180285343716
-0.00012538518348973897
-0.00013089662012665053
-0.0001336523384451063
-0.0001391637750820179
-0.0001584538033112084
-0.00016947667658503157
-0.00017223239490348733
-0.0001336523384451063
1.5156450751506162e-05
0.0002934840009155406
0.0007095974670023644
0.0012083824826428621
0.001657564568551155
0.0019414035553521009
0.0019772278934920263
0.001696144625009536
0.001178069581139848
0.0003816669871061258
-0.00046433853665980087
-0.0006792845654993521
-0.00054976580453193
-0.000447804226749066
-0.00036788839551384826
-0.00030726259250782084
-0.0002686825360494398
-0.0002466367895017936
-0.00023836963454642628
-0.00023285819790951464
-0.0002190796063172357
-0.0002108124513618684
-0.0002108124513618684
-0.0002108124513618684
-0.00020254529640650095
-0.00018601098649576628
-0.00017498811322194308
-0.00017498811322194308
-0.00017498811322194308
-0.00016947667658503157
-0.00015294236667429682
-0.00014191949340047367
-0.0001391637750820179
-0.00014467521171892948
-0.00014191949340047367
-0.00012814090180819475
-0.0001198737468528274
-0.0001171180285343716
-0.0001198737468528274
-0.0001198737468528274
-0.00010885087357900426
-9.507228198672531e-05
-8.956084534981374e-05
-9.231656366826955e-05
-9.231656366826955e-05
-8.680512703135793e-05
-7.302653543907902e-05
-6.200366216525588e-05
-6.475938048371164e-05
-6.200366216525588e-05
-5.3736507209888505e-05
-3.4446478980697995e-05
-1.7912169069963278e-05
-1.240073243305171e-05
-4.133577477684346e-06
1.5156450751506162e-05
4.271363393606403e-05
5.9247943846798756e-05
6.475938048371032e-05
5.9247943846798756e-05
5.098078889143139e-05
4.82250705729756e-05
4.546935225451981e-05
1.5156450751506162e-05
-4.133577477684346e-06
-1.240073243305171e-05
-1.7912169069963278e-05
-2.8935042343786426e-05
-4.8225070572976926e-05
-7.027081712062322e-05
-8.404940871290214e-05
-8.956084534981374e-05
-0.00010333943694209268
-0.0001198737468528274
-0.0001391637750820179
-0.00014743093003738526
-0.00014467521171892948
-0.00014743093003738526
-0.0001584538033112084
-0.00017223239490348733
-0.00017498811322194308
-0.0001612095216296642
-0.00015294236667429682
-0.00015569808499275262
-0.0001612095216296642
-0.00015569808499275262
-0.00014191949340047367
-0.0001171180285343716
-9.78280003051811e-05
-8.680512703135793e-05
-7.302653543907902e-05
-5.3736507209888505e-05
-3.720219729915378e-05
-3.169076066224221e-05
-2.8935042343786426e-05
-1.5156450751507488e-05
4.133577477683014e-06
2.3423605706873515e-05
2.8935042343785094e-05
1.7912169069961946e-05
6.8892957961388014e-06
4.133577477683014e-06
1.3778591592272275e-06
-6.889295796140132e-06
-1.7912169069963278e-05
-3.4446478980697995e-05
-5.6492225528344285e-05
-6.475938048371164e-05
-7.027081712062322e-05
-8.956084534981374e-05
-0.0001171180285343716
-0.0001364080567635621
-0.0001336523384451063
-0.0001336523384451063
-0.0001391637750820179
-0.000150186648355841
-0.00015569808499275262
-0.00015294236667429682
-0.000150186648355841
-0.000150186648355841
-0.0001612095216296642
-0.00017223239490348733
-0.00018049954985885472
-0.00018049954985885472
-0.00017498811322194308
-0.00017498811322194308
-0.00014467521171892948
-2.066788738841907e-05
