9.64501411459459e-06
-6.889295796140132e-06
-2.8935042343786426e-05
-4.2713633936065354e-05
-5.3736507209888505e-05
-6.200366216525588e-05
-7.85379720759906e-05
-9.507228198672531e-05
-0.00010609515526054846
-0.00011160659189746003
-0.0001171180285343716
-0.00012538518348973897
-0.00014191949340047367
-0.0001584538033112084
-0.00016396523994811996
-0.0001612095216296642
-0.00016672095826657574
-0.00017498811322194308
-0.00018325526817731047
-0.00018325526817731047
-0.00016672095826657574
-0.00014743093003738526
-0.00012814090180819475
-0.00011436231021591582
-9.507228198672531e-05
-7.57822537575348e-05
-5.9247943846800084e-05
-4.8225070572976926e-05
-3.720219729915378e-05
-9.64501411459592e-06
2.3423605706873515e-05
5.098078889143139e-05
5.098078889143139e-05
4.271363393606403e-05
3.9957915617608246e-05
4.82250705729756e-05
5.373650720988717e-05
4.546935225451981e-05
2.8935042343785094e-05
1.5156450751506162e-05
-1.377859159228559e-06
-6.889295796140132e-06
-2.342360570687485e-05
-4.8225070572976926e-05
-7.302653543907902e-05
-8.404940871290214e-05
-8.680512703135793e-05
-9.231656366826955e-05
-0.00010333943694209268
-0.00011436231021591582
-0.0001198737468528274
-0.0001171180285343716
-0.00011160659189746003
-0.0001198737468528274
-0.0001336523384451063
-0.00014191949340047367
-0.00014743093003738526
-0.00015294236667429682
-0.00016672095826657574
-0.00018325526817731047
-0.00014191949340047367
2.6179324025329308e-05
0.00034584264896620056
0.0007977804531929496
0.00172645752651255
0.0019662050202182034
0.0019414035553521009
0.0015666258640421142
0.0009769021438925758
0.0001832552681773092
-0.0005580329594872974
-0.0006875517204547195
-0.0005525215228503861
-0.00045882710002288904
-0.0003844227054245829
-0.00031828546578164407
-0.0002604153810940725
-0.0002218353246356915
-0.0002080567330434125
-0.0002080567330434125
-0.0001997895780880452
-0.00018325526817731047
-0.00016947667658503157
-0.00016947667658503157
-0.00016947667658503157
-0.0001612095216296642
-0.000150186648355841
-0.0001336523384451063
-0.00012814090180819475
-0.00012538518348973897
-0.0001226294651712832
-0.0001171180285343716
-0.00010333943694209268
-9.507228198672531e-05
-9.507228198672531e-05
-9.78280003051811e-05
-9.231656366826955e-05
-7.85379720759906e-05
-6.751509880216745e-05
-6.751509880216745e-05
-6.751509880216745e-05
-6.200366216525588e-05
-4.8225070572976926e-05
-3.4446478980697995e-05
-2.8935042343786426e-05
-3.169076066224221e-05
-2.342360570687485e-05
-4.133577477684346e-06
1.5156450751506162e-05
2.6179324025329308e-05
3.9957915617608246e-05
5.649222552834297e-05
8.129369039444505e-05
0.00010333943694209132
0.00011436231021591448
0.00011436231021591448
0.00011160659189745871
0.00011160659189745871
0.00011436231021591448
0.00010058371862363556
8.129369039444505e-05
6.200366216525454e-05
4.82250705729756e-05
3.9957915617608246e-05
3.169076066224089e-05
9.64501411459459e-06
-9.64501411459592e-06
-2.6179324025330647e-05
-3.4446478980697995e-05
-4.2713633936065354e-05
-6.200366216525588e-05
-8.129369039444639e-05
-9.78280003051811e-05
-0.00010333943694209268
-0.0001198737468528274
-0.0001364080567635621
-0.00015294236667429682
-0.0001612095216296642
-0.0001612095216296642
-0.00016947667658503157
-0.00018049954985885472
-0.00018601098649576628
-0.00017498811322194308
-0.0001612095216296642
-0.00014743093003738526
-0.0001391637750820179
-0.0001226294651712832
-9.78280003051811e-05
-7.302653543907902e-05
-6.200366216525588e-05
-5.3736507209888505e-05
-3.720219729915378e-05
-9.64501411459592e-06
2.066788738841773e-05
4.546935225451981e-05
4.546935225451981e-05
3.444647898069667e-05
3.720219729915245e-05
4.82250705729756e-05
4.82250705729756e-05
3.444647898069667e-05
2.066788738841773e-05
9.64501411459459e-06
-4.133577477684346e-06
-1.240073243305171e-05
-2.6179324025330647e-05
-5.098078889143272e-05
-7.302653543907902e-05
-8.680512703135793e-05
-9.231656366826955e-05
-0.00010058371862363688
-0.00011160659189746003
-0.0001226294651712832
-0.00012538518348973897
-0.0001198737468528274
-0.0001226294651712832
-0.0001336523384451063
-0.00014191949340047367
-0.00014191949340047367
-0.00014191949340047367
-0.00014743093003738526
-0.00015569808499275262
-0.00015569808499275262
-0.00012538518348973897
-4.133577477684346e-06
0.00024663678950179223
0.0006159030441748677
0.0010430393835355147
0.0014260842298008686
0.001687877470054169
0.0017760604562447539
0.0015886716105897604
0.0011394895246814672
0.0004891400015259016
-0.00031828546578164407
-0.0007013303120469984
-0.0006241701991302363
-0.0005056743114366376
-0.0004147356069275966
-0.0003403312123292903
-0.00023010247959105888
-0.0002108124513618684
-0.0002080567330434125
-0.00019703385976958942
-0.0001777438315403989
-0.00016672095826657574
-0.00016672095826657574
-0.00016396523994811996
-0.0001584538033112084
-0.00014743093003738526
-0.0001336523384451063
-0.00012538518348973897
-0.00012814090180819475
-0.00012814090180819475
-0.00011436231021591582
-0.00010333943694209268
-0.00010058371862363688
-0.00010333943694209268
-0.00010333943694209268
-9.231656366826955e-05
-7.85379720759906e-05
-7.85379720759906e-05
-8.129369039444639e-05
-8.129369039444639e-05
-7.027081712062322e-05
-5.3736507209888505e-05
-4.2713633936065354e-05
-4.2713633936065354e-05
-3.995791561760957e-05
-3.169076066224221e-05
-1.5156450751507488e-05
1.3778591592272275e-06
6.8892957961388014e-06
1.7912169069961946e-05
3.444647898069667e-05
6.200366216525454e-05
8.404940871290084e-05
9.507228198672396e-05
9.507228198672396e-05
9.507228198672396e-05
0.00010058371862363556
0.00010058371862363556
8.956084534981241e-05
7.30265354390777e-05
5.098078889143139e-05
4.271363393606403e-05
3.720219729915245e-05
2.3423605706873515e-05
4.133577477683014e-06
-1.5156450751507488e-05
-2.8935042343786426e-05
-3.720219729915378e-05
-4.8225070572976926e-05
-6.751509880216745e-05
-8.404940871290214e-05
-9.507228198672531e-05
-9.507228198672531e-05
-9.78280003051811e-05
-0.00011160659189746003
-0.00012538518348973897
-0.0001336523384451063
-0.00013089662012665053
-0.00012814090180819475
-0.0001391637750820179
-0.00015294236667429682
-0.0001612095216296642
-0.0001584538033112084
-0.000150186648355841
-0.00014467521171892948
-0.0001336523384451063
-0.00011160659189746003
-8.404940871290214e-05
-7.302653543907902e-05
-7.302653543907902e-05
-6.751509880216745e-05
-4.2713633936065354e-05
-1.240073243305171e-05
1.2400732433050376e-05
2.3423605706873515e-05
2.066788738841773e-05
2.6179324025329308e-05
3.9957915617608246e-05
4.271363393606403e-05
2.8935042343785094e-05
2.066788738841773e-05
1.5156450751506162e-05
1.2400732433050376e-05
-1.377859159228559e-06
-2.066788738841907e-05
-3.720219729915378e-05
-5.6492225528344285e-05
-7.302653543907902e-05
-8.404940871290214e-05
-9.78280003051811e-05
-0.00010885087357900426
-0.0001171180285343716
-0.0001171180285343716
-0.00011160659189746003
-0.0001198737468528274
-0.00012814090180819475
-0.0001364080567635621
-0.0001391637750820179
-0.0001364080567635621
-0.00014191949340047367
-0.00015569808499275262
-0.0001612095216296642
-0.0001391637750820179
-6.751509880216745e-05
8.68051270313566e-05
0.000365132677195391
0.0007399103685053779
0.001125710933089188
0.0014398628213931478
0.001602450202182039
0.0015666258640421142
0.001257985412375066
0.0007454218051422897
3.9957915617608246e-05
-0.000577322987716488
-0.0006765288471808962
-0.0005580329594872974
-0.00045055994506752175
-0.0003651326771953924
-0.00029072828259708617
-0.00024112535286488197
-0.00021632388799877996
-0.00020254529640650095
-0.00018876670481422206
-0.00017498811322194308
-0.00016672095826657574
-0.00016672095826657574
-0.00016396523994811996
-0.00015569808499275262
-0.00014467521171892948
-0.0001364080567635621
-0.0001391637750820179
-0.0001364080567635621
-0.0001198737468528274
-0.00010885087357900426
-0.00010885087357900426
-0.00011160659189746003
-0.00010609515526054846
-9.507228198672531e-05
-8.680512703135793e-05
-8.404940871290214e-05
-8.680512703135793e-05
-8.129369039444639e-05
-7.027081712062322e-05
-6.200366216525588e-05
-5.9247943846800084e-05
-5.9247943846800084e-05
-5.6492225528344285e-05
-4.2713633936065354e-05
-2.8935042343786426e-05
-1.7912169069963278e-05
-1.5156450751507488e-05
-4.133577477684346e-06
1.2400732433050376e-05
3.444647898069667e-05
5.649222552834297e-05
6.751509880216611e-05
6.751509880216611e-05
7.02708171206219e-05
8.129369039444505e-05
8.129369039444505e-05
6.475938048371032e-05
4.546935225451981e-05
3.444647898069667e-05
3.169076066224089e-05
2.066788738841773e-05
4.133577477683014e-06
-1.5156450751507488e-05
-2.8935042343786426e-05
-3.4446478980697995e-05
-3.995791561760957e-05
-5.3736507209888505e-05
-7.027081712062322e-05
-8.956084534981374e-05
-9.231656366826955e-05
-9.231656366826955e-05
-9.78280003051811e-05
-0.00010885087357900426
-0.0001198737468528274
-0.0001198737468528274
-0.00011436231021591582
-0.0001171180285343716
-0.00012814090180819475
-0.0001391637750820179
-0.0001391637750820179
-0.0001364080567635621
-0.0001364080567635621
-0.0001364080567635621
-0.0001391637750820179
-0.00012814090180819475
-0.00010609515526054846
-8.129369039444639e-05
-6.751509880216745e-05
-6.475938048371164e-05
-5.9247943846800084e-05
-4.5469352254521147e-05
-2.066788738841907e-05
-1.377859159228559e-06
1.7912169069961946e-05
2.6179324025329308e-05
3.444647898069667e-05
4.546935225451981e-05
3.720219729915245e-05
2.6179324025329308e-05
2.3423605706873515e-05
2.8935042343785094e-05
2.066788738841773e-05
-4.133577477684346e-06
-2.6179324025330647e-05
-3.720219729915378e-05
-4.5469352254521147e-05
-6.200366216525588e-05
-7.85379720759906e-05
-9.231656366826955e-05
-9.78280003051811e-05
-9.78280003051811e-05
-9.507228198672531e-05
-0.00010058371862363688
-0.00011160659189746003
-0.0001198737468528274
-0.0001171180285343716
-0.00011436231021591582
-0.0001198737468528274
-0.0001364080567635621
-0.00014743093003738526
-0.000150186648355841
-0.00014191949340047367
-8.956084534981374e-05
7.02708171206219e-05
0.00037615555046921414
0.000806047608148317
0.0012497182574196988
0.0015859158922713046
0.0017292132448310056
0.0016134730754558623
0.0012111382009613175
0.0006434602273594254
-0.00011160659189746003
-0.0006379487907225153
-0.0006407045090409712
-0.0005166971847104609
-0.00041197988860914084
-0.00032655262073701135
-0.0002686825360494398
-0.00023010247959105888
-0.00020254529640650095
-0.00018325526817731047
-0.00017223239490348733
-0.00016947667658503157
-0.00016947667658503157
-0.00016396523994811996
-0.000150186648355841
-0.0001364080567635621
-0.00013089662012665053
-0.00013089662012665053
-0.00013089662012665053
-0.0001198737468528274
-0.00010609515526054846
-0.00010058371862363688
-0.00010333943694209268
-0.00010333943694209268
-9.507228198672531e-05
-8.129369039444639e-05
-7.302653543907902e-05
-7.027081712062322e-05
-7.027081712062322e-05
-6.751509880216745e-05
-5.6492225528344285e-05
-4.5469352254521147e-05
-4.8225070572976926e-05
-4.2713633936065354e-05
-3.169076066224221e-05
-1.5156450751507488e-05
-1.240073243305171e-05
-1.240073243305171e-05
-4.133577477684346e-06
9.64501411459459e-06
2.8935042343785094e-05
4.271363393606403e-05
4.271363393606403e-05
4.82250705729756e-05
5.9247943846798756e-05
6.475938048371032e-05
5.9247943846798756e-05
4.82250705729756e-05
3.720219729915245e-05
2.8935042343785094e-05
2.3423605706873515e-05
1.5156450751506162e-05
-1.377859159228559e-06
-1.240073243305171e-05
-2.066788738841907e-05
-2.066788738841907e-05
-2.342360570687485e-05
-3.995791561760957e-05
-6.200366216525588e-05
-7.57822537575348e-05
-7.85379720759906e-05
-8.129369039444639e-05
-9.507228198672531e-05
-0.00011160659189746003
-0.00012538518348973897
-0.00013089662012665053
-0.00012814090180819475
-0.0001364080567635621
-0.000150186648355841
-0.0001584538033112084
-0.00015294236667429682
-0.00014743093003738526
-0.00014743093003738526
-0.000150186648355841
-0.00014467521171892948
-0.00012538518348973897
-0.00010058371862363688
-8.404940871290214e-05
-6.751509880216745e-05
-5.6492225528344285e-05
-4.2713633936065354e-05
-2.8935042343786426e-05
-1.240073243305171e-05
9.64501411459459e-06
2.8935042343785094e-05
4.82250705729756e-05
6.475938048371032e-05
7.02708171206219e-05
6.475938048371032e-05
5.373650720988717e-05
4.271363393606403e-05
4.271363393606403e-05
4.271363393606403e-05
3.444647898069667e-05
9.64501411459459e-06
-1.5156450751507488e-05
-2.6179324025330647e-05
-3.995791561760957e-05
-5.9247943846800084e-05
-7.85379720759906e-05
-9.507228198672531e-05
-9.231656366826955e-05
-9.507228198672531e-05
-0.00010333943694209268
-0.00011160659189746003
-0.00011160659189746003
-0.00010885087357900426
-0.00011160659189746003
-0.0001226294651712832
-0.0001336523384451063
-0.00014467521171892948
-0.00014743093003738526
-0.00015569808499275262
-0.000150186648355841
-6.751509880216745e-05
0.00014743093003738393
0.000508430029755092
0.0009796578622110316
0.0014095499198901345
0.0016658317235065223
0.0016851217517357133
0.0013875041733424878
0.0008666734111543443
0.0001832552681773092
-0.0005304757763027395
-0.0007288874952315562
-0.0005883458609903113
-0.0004615828183413449
-0.00037891126878767127
-0.0003100183108262768
-0.00025765966277561676
-0.00021356816968032413
-0.00018601098649576628
-0.00016947667658503157
-0.00016396523994811996
-0.00016396523994811996
-0.00015569808499275262
-0.0001391637750820179
-0.00013089662012665053
-0.00012814090180819475
-0.00012814090180819475
-0.0001226294651712832
-0.00010609515526054846
-9.231656366826955e-05
-8.680512703135793e-05
-8.680512703135793e-05
-8.404940871290214e-05
-7.302653543907902e-05
-5.9247943846800084e-05
-5.098078889143272e-05
-5.3736507209888505e-05
-5.3736507209888505e-05
-4.5469352254521147e-05
-2.8935042343786426e-05
-2.342360570687485e-05
-2.066788738841907e-05
-2.066788738841907e-05
-1.5156450751507488e-05
1.3778591592272275e-06
1.2400732433050376e-05
1.7912169069961946e-05
2.066788738841773e-05
3.169076066224089e-05
5.373650720988717e-05
7.30265354390777e-05
8.68051270313566e-05
9.23165636682682e-05
0.00010333943694209132
0.00013365233844510492
0.00012814090180819342
0.00011711802853437029
0.00010885087357900291
0.00010885087357900291
0.00011160659189745871
0.00010333943694209132
8.956084534981241e-05
7.578225375753347e-05
6.751509880216611e-05
6.200366216525454e-05
4.546935225451981e-05
1.5156450751506162e-05
-1.7912169069963278e-05
-3.995791561760957e-05
-5.3736507209888505e-05
-7.027081712062322e-05
-8.680512703135793e-05
-0.00010885087357900426
-0.0001198737468528274
-0.0001198737468528274
-0.0001226294651712832
-0.0001336523384451063
-0.00014191949340047367
-0.00014743093003738526
-0.0001364080567635621
-0.0001226294651712832
-0.0001198737468528274
-0.0001226294651712832
-0.0001171180285343716
-9.78280003051811e-05
-7.302653543907902e-05
-5.6492225528344285e-05
-4.2713633936065354e-05
-2.6179324025330647e-05
-1.5156450751507488e-05
-4.133577477684346e-06
4.133577477683014e-06
1.7912169069961946e-05
3.444647898069667e-05
5.9247943846798756e-05
7.853797207598924e-05
8.129369039444505e-05
6.751509880216611e-05
5.649222552834297e-05
4.82250705729756e-05
4.82250705729756e-05
4.271363393606403e-05
3.169076066224089e-05
1.2400732433050376e-05
-9.64501411459592e-06
-2.066788738841907e-05
-3.169076066224221e-05
-5.3736507209888505e-05
-8.404940871290214e-05
-9.78280003051811e-05
-9.507228198672531e-05
-8.956084534981374e-05
-9.507228198672531e-05
-0.00010885087357900426
-0.0001198737468528274
-0.0001198737468528274
-0.00011160659189746003
-0.00011436231021591582
-0.00012538518348973897
-0.0001391637750820179
-0.00014467521171892948
-0.000150186648355841
-0.0001612095216296642
-0.00013089662012665053
4.82250705729756e-05
0.00037064411383230263
0.00081707048142214
0.001293809750514991
0.0016492974135957881
0.0017981062027924003
0.0016410302586404204
0.0011753138628213923
0.0005580329594872961
-0.00023010247959105888
-0.0007040860303654542
-0.00065448310063325
-0.0005084300297550932
-0.00041749132524605234
-0.0003485983672846577
-0.0002852168459601746
-0.00023561391622797047
-0.0001997895780880452
-0.00018325526817731047
-0.00018601098649576628
-0.00018325526817731047
-0.00017498811322194308
-0.0001612095216296642
-0.00014743093003738526
-0.00014191949340047367
-0.00014191949340047367
-0.0001364080567635621
-0.00012538518348973897
-0.00011160659189746003
-0.00011160659189746003
-0.00011436231021591582
-0.00011160659189746003
-9.507228198672531e-05
-8.129369039444639e-05
-7.85379720759906e-05
-8.129369039444639e-05
-7.85379720759906e-05
-6.751509880216745e-05
-5.6492225528344285e-05
-5.098078889143272e-05
-4.8225070572976926e-05
-4.8225070572976926e-05
-3.995791561760957e-05
-2.6179324025330647e-05
-1.5156450751507488e-05
-1.5156450751507488e-05
-9.64501411459592e-06
4.133577477683014e-06
2.8935042343785094e-05
4.546935225451981e-05
5.373650720988717e-05
6.200366216525454e-05
7.578225375753347e-05
9.782800030517979e-05
0.00010885087357900291
0.00010609515526054714
9.507228198672396e-05
8.956084534981241e-05
9.23165636682682e-05
9.23165636682682e-05
8.129369039444505e-05
6.751509880216611e-05
5.649222552834297e-05
5.649222552834297e-05
5.373650720988717e-05
3.720219729915245e-05
9.64501411459459e-06
-4.2713633936065354e-05
-5.9247943846800084e-05
-8.129369039444639e-05
-0.00010609515526054846
-0.00012538518348973897
-0.0001336523384451063
-0.0001364080567635621
-0.00014191949340047367
-0.00015569808499275262
-0.00016672095826657574
-0.00016947667658503157
-0.0001612095216296642
-0.0001584538033112084
-0.00015294236667429682
-0.00015294236667429682
-0.00014467521171892948
-0.00012538518348973897
-0.00010058371862363688
-8.404940871290214e-05
-6.751509880216745e-05
-4.8225070572976926e-05
-2.8935042343786426e-05
-1.240073243305171e-05
-6.889295796140132e-06
-1.377859159228559e-06
2.066788738841773e-05
4.82250705729756e-05
7.578225375753347e-05
8.129369039444505e-05
6.751509880216611e-05
5.373650720988717e-05
5.373650720988717e-05
5.373650720988717e-05
4.82250705729756e-05
3.444647898069667e-05
1.7912169069961946e-05
-1.377859159228559e-06
-1.240073243305171e-05
-2.6179324025330647e-05
-5.098078889143272e-05
-7.57822537575348e-05
-9.507228198672531e-05
-9.231656366826955e-05
-8.956084534981374e-05
-9.78280003051811e-05
-0.0001171180285343716
-0.00012538518348973897
-0.0001198737468528274
-0.0001171180285343716
-0.0001198737468528274
-0.00013089662012665053
-0.0001364080567635621
-0.0001364080567635621
-0.00014191949340047367
-0.00015569808499275262
-0.00018325526817731047
-0.00018049954985885472
-6.475938048371164e-05
0.00019152242313267648
0.0005911015793087656
0.0010788637216754397
0.0015390686808575565
0.0018449534142061489
0.0019221135271229105
0.0016492974135957881
0.0011119323414969095
0.00040371273365377215
-0.00039268986037995033
-0.0005855901426718552
-0.00048087284657053543
-0.00040371273365377345
-0.0003348197756923787
-0.00027143825436789566
-0.00023010247959105888
-0.0002108124513618684
-0.0002108124513618684
-0.00020530101472495681
-0.00019152242313267784
-0.00017223239490348733
-0.00016672095826657574
-0.00016672095826657574
-0.0001612095216296642
-0.00015294236667429682
-0.0001364080567635621
-0.00012814090180819475
-0.00013089662012665053
-0.00012814090180819475
-0.0001226294651712832
-0.00010609515526054846
-9.78280003051811e-05
-9.507228198672531e-05
-9.507228198672531e-05
-8.680512703135793e-05
-7.302653543907902e-05
-6.475938048371164e-05
-6.200366216525588e-05
-6.751509880216745e-05
-6.751509880216745e-05
-5.3736507209888505e-05
-3.995791561760957e-05
-3.4446478980697995e-05
-3.4446478980697995e-05
-3.169076066224221e-05
-1.7912169069963278e-05
1.3778591592272275e-06
1.7912169069961946e-05
2.3423605706873515e-05
3.720219729915245e-05
5.649222552834297e-05
7.853797207598924e-05
9.23165636682682e-05
9.507228198672396e-05
8.956084534981241e-05
8.68051270313566e-05
8.68051270313566e-05
8.129369039444505e-05
6.200366216525454e-05
3.9957915617608246e-05
3.169076066224089e-05
3.169076066224089e-05
2.6179324025329308e-05
1.2400732433050376e-05
-6.889295796140132e-06
-2.342360570687485e-05
-3.4446478980697995e-05
-4.5469352254521147e-05
-6.751509880216745e-05
-9.231656366826955e-05
-0.00011436231021591582
-0.0001171180285343716
-0.00012538518348973897
-0.0001391637750820179
-0.00015569808499275262
-0.00017223239490348733
-0.00017498811322194308
-0.00017223239490348733
-0.00018049954985885472
-0.00018876670481422206
-0.00018049954985885472
-0.0001612095216296642
-0.00014467521171892948
-0.00013089662012665053
-0.0001171180285343716
-9.231656366826955e-05
-6.200366216525588e-05
-3.995791561760957e-05
-3.169076066224221e-05
-2.6179324025330647e-05
-6.889295796140132e-06
2.6179324025329308e-05
5.649222552834297e-05
7.02708171206219e-05
6.475938048371032e-05
5.9247943846798756e-05
6.475938048371032e-05
6.751509880216611e-05
5.373650720988717e-05
3.720219729915245e-05
2.6179324025329308e-05
1.7912169069961946e-05
4.133577477683014e-06
-1.240073243305171e-05
-3.995791561760957e-05
-6.751509880216745e-05
-8.404940871290214e-05
-8.680512703135793e-05
-8.956084534981374e-05
-0.00010058371862363688
-0.00011436231021591582
-0.0001198737468528274
-0.0001171180285343716
-0.00011160659189746003
-0.0001226294651712832
-0.0001336523384451063
-0.0001364080567635621
-0.0001364080567635621
-0.00014191949340047367
-0.00015569808499275262
-0.00018049954985885472
-0.00019703385976958942
-0.00014467521171892948
3.720219729915245e-05
0.00034584264896620056
0.0007895132982375822
0.0012882983138780798
0.001720946089875638
0.001971716456855115
0.001938647837033645
0.0015418243991760121
0.0009465892423895617
0.00016120952162966288
-0.0005525215228503861
-0.0006792845654993521
-0.0005552772411688418
-0.00046709425497825643
-0.0003871784237430386
-0.0003100183108262768
-0.00025765966277561676
-0.00023010247959105888
-0.0002218353246356915
-0.00021632388799877996
-0.0001997895780880452
-0.00018876670481422206
-0.00018601098649576628
-0.00018601098649576628
-0.00016396523994811996
-0.00015294236667429682
-0.00014743093003738526
-0.00014743093003738526
-0.00014467521171892948
-0.0001364080567635621
-0.00012538518348973897
-0.0001171180285343716
-0.0001198737468528274
-0.0001198737468528274
-0.00011160659189746003
-9.507228198672531e-05
-8.404940871290214e-05
-8.956084534981374e-05
-9.507228198672531e-05
-8.404940871290214e-05
-6.751509880216745e-05
-5.6492225528344285e-05
-5.3736507209888505e-05
-5.3736507209888505e-05
-5.098078889143272e-05
-3.169076066224221e-05
-1.5156450751507488e-05
-6.889295796140132e-06
1.3778591592272275e-06
1.5156450751506162e-05
3.720219729915245e-05
5.9247943846798756e-05
7.578225375753347e-05
7.853797207598924e-05
8.129369039444505e-05
8.68051270313566e-05
9.23165636682682e-05
7.853797207598924e-05
5.9247943846798756e-05
3.9957915617608246e-05
3.444647898069667e-05
3.444647898069667e-05
2.3423605706873515e-05
4.133577477683014e-06
-1.240073243305171e-05
-2.342360570687485e-05
-2.8935042343786426e-05
-3.995791561760957e-05
-5.9247943846800084e-05
-7.85379720759906e-05
-9.231656366826955e-05
-9.78280003051811e-05
-0.00010609515526054846
-0.0001198737468528274
-0.0001391637750820179
-0.00015569808499275262
-0.0001612095216296642
-0.00016396523994811996
-0.00017223239490348733
-0.00018325526817731047
-0.00019152242313267784
-0.00018601098649576628
-0.00017498811322194308
-0.00016672095826657574
-0.0001612095216296642
-0.000150186648355841
-0.00012538518348973897
-9.231656366826955e-05
-7.302653543907902e-05
-6.200366216525588e-05
-5.6492225528344285e-05
-4.2713633936065354e-05
2.3423605706873515e-05
4.546935225451981e-05
4.82250705729756e-05
4.546935225451981e-05
5.098078889143139e-05
5.9247943846798756e-05
5.373650720988717e-05
3.720219729915245e-05
2.6179324025329308e-05
2.3423605706873515e-05
1.5156450751506162e-05
-1.377859159228559e-06
-2.8935042343786426e-05
-4.8225070572976926e-05
-6.475938048371164e-05
-7.85379720759906e-05
-9.231656366826955e-05
-0.00010333943694209268
-0.0001171180285343716
-0.0001198737468528274
-0.0001198737468528274
-0.0001226294651712832
-0.00012814090180819475
-0.0001391637750820179
-0.00014467521171892948
-0.0001391637750820179
-0.00014191949340047367
-0.0001584538033112084
-0.00017498811322194308
-0.00018601098649576628
-0.00017223239490348733
-7.57822537575348e-05
0.00014191949340047234
0.000508430029755092
0.0009961921721217662
0.0015060000610360867
0.001886289188982985
0.0020350979781795973
0.0018614877241168832
0.0013819927367055766
0.0007343989318684667
-0.00011436231021591582
-0.0006572388189517057
-0.0006434602273594267
-0.0005249643396658282
-0.00043678135347524285
-0.00035410980392156926
-0.00029348400091554195
-0.00025765966277561676
-0.00023561391622797047
-0.00022459104295414727
-0.0002108124513618684
-0.00019703385976958942
-0.00019152242313267784
-0.00019427814145113364
-0.00018876670481422206
-0.00017498811322194308
-0.0001612095216296642
-0.0001612095216296642
-0.0001612095216296642
-0.00015569808499275262
-0.00014467521171892948
-0.00013089662012665053
-0.00012814090180819475
-0.00013089662012665053
-0.00013089662012665053
-0.0001171180285343716
-0.00010333943694209268
-0.00010058371862363688
-0.00010058371862363688
-8.956084534981374e-05
-7.57822537575348e-05
-7.027081712062322e-05
-7.027081712062322e-05
-7.027081712062322e-05
-5.6492225528344285e-05
-3.720219729915378e-05
-2.342360570687485e-05
-1.5156450751507488e-05
-9.64501411459592e-06
1.3778591592272275e-06
2.3423605706873515e-05
4.82250705729756e-05
6.200366216525454e-05
7.02708171206219e-05
8.129369039444505e-05
9.23165636682682e-05
9.507228198672396e-05
8.129369039444505e-05
6.475938048371032e-05
5.098078889143139e-05
4.546935225451981e-05
3.9957915617608246e-05
2.3423605706873515e-05
4.133577477683014e-06
-1.5156450751507488e-05
-2.066788738841907e-05
-2.6179324025330647e-05
-4.2713633936065354e-05
-6.751509880216745e-05
-8.680512703135793e-05
-9.78280003051811e-05
-9.78280003051811e-05
-0.00010885087357900426
-0.00012538518348973897
-0.00014467521171892948
-0.00015569808499275262
-0.0001584538033112084
-0.0001612095216296642
-0.0001777438315403989
-0.00019152242313267784
-0.0001997895780880452
-0.00019152242313267784
-0.00018601098649576628
-0.00018601098649576628
-0.00018325526817731047
-0.00017223239490348733
-0.000150186648355841
-0.0001198737468528274
-0.00010058371862363688
-9.231656366826955e-05
-7.85379720759906e-05
-6.475938048371164e-05
-3.720219729915378e-05
-9.64501411459592e-06
6.8892957961388014e-06
2.066788738841773e-05
3.169076066224089e-05
3.9957915617608246e-05
3.9957915617608246e-05
3.169076066224089e-05
2.066788738841773e-05
9.64501411459459e-06
9.64501411459459e-06
4.133577477683014e-06
-2.066788738841907e-05
-5.9247943846800084e-05
-7.027081712062322e-05
-8.956084534981374e-05
-0.00010885087357900426
-0.00012538518348973897
-0.0001364080567635621
-0.0001364080567635621
-0.00012814090180819475
-0.00013089662012665053
-0.00014467521171892948
-0.00015569808499275262
-0.00015294236667429682
-0.00014743093003738526
-0.000150186648355841
-0.00016396523994811996
-0.00018049954985885472
-0.00018601098649576628
-0.0001777438315403989
-0.0001391637750820179
-2.066788738841907e-05
0.00022734676127260172
0.0006159030441748677
0.0010733522850385282
0.0014756871595330732
0.00172645752651255
0.0017760604562447539
0.0015473358358129234
0.001089886594949263
0.00042575848020141833
-0.0003899341420614945
-0.0007371546501869236
-0.0006462159456778825
-0.0005111857480735491
-0.0004147356069275966
-0.0003485983672846577
-0.0002989954375524536
-0.00026592681773098404
-0.00023836963454642628
-0.00021632388799877996
-0.0002080567330434125
-0.0002080567330434125
-0.0002080567330434125
-0.00019703385976958942
-0.00018049954985885472
-0.00017223239490348733
-0.00017223239490348733
-0.00016947667658503157
-0.0001612095216296642
-0.00014743093003738526
-0.0001336523384451063
-0.0001336523384451063
-0.0001336523384451063
-0.00013089662012665053
-0.0001198737468528274
-0.00010609515526054846
-0.00010333943694209268
-0.00010609515526054846
-0.00010333943694209268
-9.231656366826955e-05
-7.85379720759906e-05
-7.027081712062322e-05
-7.302653543907902e-05
-7.027081712062322e-05
-5.9247943846800084e-05
-4.8225070572976926e-05
-3.720219729915378e-05
-2.8935042343786426e-05
-2.066788738841907e-05
2.066788738841773e-05
3.9957915617608246e-05
5.373650720988717e-05
6.475938048371032e-05
7.578225375753347e-05
9.23165636682682e-05
0.00010058371862363556
9.507228198672396e-05
7.578225375753347e-05
5.9247943846798756e-05
5.373650720988717e-05
4.82250705729756e-05
2.8935042343785094e-05
1.2400732433050376e-05
-4.133577477684346e-06
-1.240073243305171e-05
-2.066788738841907e-05
-3.720219729915378e-05
-6.200366216525588e-05
-7.85379720759906e-05
-8.404940871290214e-05
-8.404940871290214e-05
-9.507228198672531e-05
-0.00011160659189746003
-0.00012538518348973897
-0.00012814090180819475
-0.00013089662012665053
-0.0001391637750820179
-0.00015569808499275262
-0.00016947667658503157
-0.00017223239490348733
-0.00016672095826657574
-0.00016947667658503157
-0.00018049954985885472
-0.00018601098649576628
-0.0001777438315403989
-0.00015294236667429682
-0.00013089662012665053
-0.0001171180285343716
-0.00010885087357900426
-9.507228198672531e-05
-7.85379720759906e-05
-5.6492225528344285e-05
-3.720219729915378e-05
-1.7912169069963278e-05
-1.377859159228559e-06
1.7912169069961946e-05
3.169076066224089e-05
3.169076066224089e-05
2.6179324025329308e-05
1.5156450751506162e-05
1.2400732433050376e-05
1.2400732433050376e-05
1.2400732433050376e-05
-4.133577477684346e-06
-2.8935042343786426e-05
-4.5469352254521147e-05
-5.3736507209888505e-05
-6.475938048371164e-05
-8.956084534981374e-05
-0.00011160659189746003
-0.0001226294651712832
-0.0001226294651712832
-0.0001226294651712832
-0.00013089662012665053
-0.00014191949340047367
-0.00014743093003738526
-0.00014191949340047367
-0.0001391637750820179
-0.0001584538033112084
-0.00017498811322194308
-0.0001777438315403989
-0.00016672095826657574
-0.00014191949340047367
-8.404940871290214e-05
6.751509880216611e-05
0.00035410980392156795
0.0007454218051422897
0.0011394895246814672
0.0014371071030746922
0.0015914273289082165
0.0015556029907682909
0.0012607411306935217
0.0007564446784161128
2.8935042343785094e-05
-0.0006131473258564133
-0.0007040860303654542
-0.0005690558327611206
-0.00045055994506752175
-0.00037339983215075977
-0.00031828546578164407
-0.0002686825360494398
-0.00023010247959105888
-0.00020530101472495681
-0.0001997895780880452
-0.0001997895780880452
-0.00019703385976958942
-0.00018325526817731047
-0.00016672095826657574
-0.00015569808499275262
-0.00015569808499275262
-0.00015569808499275262
-0.00014743093003738526
-0.0001364080567635621
-0.00012814090180819475
-0.00012814090180819475
-0.00013089662012665053
-0.00012538518348973897
-0.00011436231021591582
-0.00010333943694209268
-0.00010058371862363688
-0.00010333943694209268
-0.00010058371862363688
-8.404940871290214e-05
-7.57822537575348e-05
-7.302653543907902e-05
-7.302653543907902e-05
-7.027081712062322e-05
-5.6492225528344285e-05
-4.2713633936065354e-05
-3.720219729915378e-05
-3.169076066224221e-05
-2.8935042343786426e-05
-1.5156450751507488e-05
6.8892957961388014e-06
2.3423605706873515e-05
3.444647898069667e-05
4.546935225451981e-05
6.200366216525454e-05
8.129369039444505e-05
8.68051270313566e-05
7.853797207598924e-05
6.751509880216611e-05
5.649222552834297e-05
5.649222552834297e-05
4.82250705729756e-05
2.8935042343785094e-05
-6.889295796140132e-06
-1.240073243305171e-05
-1.5156450751507488e-05
-3.169076066224221e-05
-5.3736507209888505e-05
-7.302653543907902e-05
-7.85379720759906e-05
-7.85379720759906e-05
-8.956084534981374e-05
-0.00010333943694209268
-0.0001171180285343716
-0.00011436231021591582
-0.00011160659189746003
-0.0001198737468528274
-0.00013089662012665053
-0.00014191949340047367
-0.00014467521171892948
-0.00014467521171892948
-0.00014743093003738526
-0.00015569808499275262
-0.0001612095216296642
-0.00015569808499275262
-0.00014467521171892948
-0.00012814090180819475
-0.00011436231021591582
-0.00010058371862363688
-8.404940871290214e-05
-6.475938048371164e-05
-5.3736507209888505e-05
-4.5469352254521147e-05
-3.169076066224221e-05
-1.240073243305171e-05
1.5156450751506162e-05
3.444647898069667e-05
3.720219729915245e-05
3.169076066224089e-05
3.169076066224089e-05
3.444647898069667e-05
3.444647898069667e-05
2.8935042343785094e-05
1.7912169069961946e-05
4.133577477683014e-06
-1.240073243305171e-05
-1.7912169069963278e-05
-2.8935042343786426e-05
-5.6492225528344285e-05
-8.404940871290214e-05
-9.78280003051811e-05
-9.507228198672531e-05
-9.507228198672531e-05
-0.00010885087357900426
-0.0001226294651712832
-0.0001226294651712832
-0.0001171180285343716
-0.0001171180285343716
-0.00012538518348973897
-0.0001336523384451063
-0.00014467521171892948
-0.00014467521171892948
-0.00014743093003738526
-0.00015294236667429682
-0.00015294236667429682
-0.00010333943694209268
6.200366216525454e-05
0.00037064411383230263
0.0007784904249637591
0.0011863367360952157
0.001514267215991454
0.0016437859769588762
0.0012965654688334468
0.0007509332417792012
1.2400732433050376e-05
-0.0005883458609903113
-0.0006462159456778825
-0.0005194529030289164
-0.0004285141985198755
-0.0003596212405584808
-0.00029348400091554195
-0.00023285819790951464
-0.0001997895780880452
-0.00019152242313267784
-0.00019152242313267784
-0.00018601098649576628
-0.00016947667658503157
-0.0001584538033112084
-0.00015294236667429682
-0.00015569808499275262
-0.00015569808499275262
-0.00014191949340047367
-0.00012814090180819475
-0.0001226294651712832
-0.00012538518348973897
-0.0001226294651712832
-0.00011160659189746003
-9.507228198672531e-05
-8.956084534981374e-05
-9.231656366826955e-05
-9.507228198672531e-05
-8.680512703135793e-05
-7.302653543907902e-05
-7.027081712062322e-05
-7.027081712062322e-05
-7.027081712062322e-05
-6.475938048371164e-05
-5.098078889143272e-05
-4.2713633936065354e-05
-3.995791561760957e-05
-3.995791561760957e-05
-3.4446478980697995e-05
-2.342360570687485e-05
-9.64501411459592e-06
-4.133577477684346e-06
-1.377859159228559e-06
9.64501411459459e-06
2.6179324025329308e-05
4.271363393606403e-05
4.82250705729756e-05
3.9957915617608246e-05
3.720219729915245e-05
3.444647898069667e-05
3.444647898069667e-05
2.3423605706873515e-05
6.8892957961388014e-06
-9.64501411459592e-06
-1.7912169069963278e-05
-1.7912169069963278e-05
-2.342360570687485e-05
-3.4446478980697995e-05
-4.8225070572976926e-05
-5.9247943846800084e-05
-6.200366216525588e-05
-6.751509880216745e-05
-7.85379720759906e-05
-9.507228198672531e-05
-0.00010885087357900426
-0.00010885087357900426
-0.0001226294651712832
-0.0001336523384451063
-0.00014191949340047367
-0.00014191949340047367
-0.0001391637750820179
-0.00014467521171892948
-0.00015294236667429682
-0.00015569808499275262
-0.000150186648355841
-0.0001364080567635621
-0.00012814090180819475
-0.0001198737468528274
-0.00010609515526054846
-8.129369039444639e-05
-5.6492225528344285e-05
-3.995791561760957e-05
-3.995791561760957e-05
-3.720219729915378e-05
-1.5156450751507488e-05
1.7912169069961946e-05
4.82250705729756e-05
5.9247943846798756e-05
5.098078889143139e-05
4.82250705729756e-05
5.649222552834297e-05
5.373650720988717e-05
4.271363393606403e-05
2.8935042343785094e-05
2.066788738841773e-05
1.5156450751506162e-05
1.3778591592272275e-06
-1.240073243305171e-05
-3.720219729915378e-05
-6.200366216525588e-05
-7.85379720759906e-05
-8.129369039444639e-05
-8.680512703135793e-05
-9.78280003051811e-05
-0.00010609515526054846
-0.00010885087357900426
-0.00010333943694209268
-0.00010609515526054846
-0.00011436231021591582
-0.0001226294651712832
-0.00012814090180819475
-0.00012538518348973897
-0.00012814090180819475
-0.00014191949340047367
-0.00015569808499275262
-0.0001612095216296642
-0.00010609515526054846
5.9247943846798756e-05
0.00034584264896620056
0.0007619561150530243
0.0012194053559166852
0.0015666258640421142
0.0017126789349202708
0.0015638701457236582
0.001103665186541542
0.0005001628747997245
-0.0002549039444571609
-0.0006930631570916311
-0.0006379487907225153
-0.0005029185931181816
-0.00041197988860914084
-0.0003348197756923787
-0.00025765966277561676
-0.00020254529640650095
-0.00017498811322194308
-0.00016396523994811996
-0.00014743093003738526
-0.0001336523384451063
-0.0001336523384451063
-0.0001336523384451063
-0.00012538518348973897
-0.00010885087357900426
-0.00010058371862363688
-9.507228198672531e-05
-9.507228198672531e-05
-9.231656366826955e-05
-8.129369039444639e-05
-7.302653543907902e-05
-6.751509880216745e-05
-7.027081712062322e-05
-6.475938048371164e-05
-5.3736507209888505e-05
-3.720219729915378e-05
-2.8935042343786426e-05
-3.169076066224221e-05
-3.4446478980697995e-05
-2.342360570687485e-05
-9.64501411459592e-06
1.3778591592272275e-06
1.3778591592272275e-06
1.3778591592272275e-06
1.2400732433050376e-05
3.169076066224089e-05
4.82250705729756e-05
5.649222552834297e-05
6.475938048371032e-05
7.578225375753347e-05
9.507228198672396e-05
0.00011436231021591448
0.00011987374685282605
0.00011987374685282605
0.00011711802853437029
0.00012262946517128183
0.00012814090180819342
0.00012262946517128183
0.00010609515526054714
9.782800030517979e-05
9.782800030517979e-05
0.00010058371862363556
8.956084534981241e-05
6.475938048371032e-05
4.271363393606403e-05
2.3423605706873515e-05
4.133577477683014e-06
-1.5156450751507488e-05
-4.2713633936065354e-05
-6.751509880216745e-05
-8.129369039444639e-05
-8.680512703135793e-05
-9.231656366826955e-05
-0.00010333943694209268
-0.0001171180285343716
-0.0001226294651712832
-0.0001198737468528274
-0.00011436231021591582
-0.0001198737468528274
-0.0001226294651712832
-0.0001226294651712832
-0.00011160659189746003
-9.78280003051811e-05
-9.231656366826955e-05
-8.129369039444639e-05
-6.475938048371164e-05
-1.7912169069963278e-05
-4.133577477684346e-06
-6.889295796140132e-06
-4.133577477684346e-06
9.64501411459459e-06
3.720219729915245e-05
6.200366216525454e-05
7.853797207598924e-05
7.578225375753347e-05
7.02708171206219e-05
7.02708171206219e-05
6.751509880216611e-05
5.373650720988717e-05
3.720219729915245e-05
2.8935042343785094e-05
2.6179324025329308e-05
1.2400732433050376e-05
-4.133577477684346e-06
-2.8935042343786426e-05
-5.098078889143272e-05
-6.475938048371164e-05
-7.302653543907902e-05
-8.129369039444639e-05
-9.507228198672531e-05
-9.78280003051811e-05
-9.78280003051811e-05
-8.956084534981374e-05
-9.231656366826955e-05
-0.00010609515526054846
-0.00011436231021591582
-0.0001171180285343716
-0.00011160659189746003
-0.00011436231021591582
-0.00013089662012665053
-0.000150186648355841
-0.00016947667658503157
-0.0001612095216296642
-6.200366216525588e-05
0.00016396523994811866
0.0005222086213473709
0.0009961921721217662
0.0014508856946669714
0.0017429918364232845
0.0017815718928816655
0.0014867100328068963
0.000960367833981841
0.0002879725642786291
-0.00044504850843061025
-0.0006958188754100868
-0.0005855901426718552
-0.0004698499732967123
-0.00037615555046921565
-0.00029072828259708617
-0.00023285819790951464
-0.00020530101472495681
-0.00019152242313267784
-0.00017498811322194308
-0.0001584538033112084
-0.00014467521171892948
-0.00014743093003738526
-0.00014743093003738526
-0.0001364080567635621
-0.0001226294651712832
-0.00011436231021591582
-0.00011160659189746003
-0.00011160659189746003
-0.00010333943694209268
-9.231656366826955e-05
-7.85379720759906e-05
-8.129369039444639e-05
-7.57822537575348e-05
-6.475938048371164e-05
-5.3736507209888505e-05
-4.8225070572976926e-05
-4.5469352254521147e-05
-4.5469352254521147e-05
-3.720219729915378e-05
-2.066788738841907e-05
-1.240073243305171e-05
-1.240073243305171e-05
-9.64501411459592e-06
1.3778591592272275e-06
2.066788738841773e-05
3.444647898069667e-05
4.271363393606403e-05
4.82250705729756e-05
6.200366216525454e-05
8.68051270313566e-05
0.00010333943694209132
0.00010885087357900291
0.00011436231021591448
0.00011987374685282605
0.00013089662012664922
0.00013640805676356078
0.0001253851834897376
0.00010885087357900291
0.00010333943694209132
0.00010885087357900291
0.00011160659189745871
0.00010058371862363556
8.404940871290084e-05
6.751509880216611e-05
5.373650720988717e-05
3.720219729915245e-05
6.8892957961388014e-06
-2.6179324025330647e-05
-5.3736507209888505e-05
-7.027081712062322e-05
-8.129369039444639e-05
-9.231656366826955e-05
-0.00010885087357900426
-0.00012538518348973897
-0.0001336523384451063
-0.00012814090180819475
-0.00012814090180819475
-0.0001336523384451063
-0.0001391637750820179
-0.0001336523384451063
-0.0001171180285343716
-0.00010609515526054846
-0.00010058371862363688
-9.231656366826955e-05
-7.57822537575348e-05
-4.5469352254521147e-05
-1.5156450751507488e-05
-1.377859159228559e-06
-1.377859159228559e-06
-1.377859159228559e-06
1.2400732433050376e-05
3.9957915617608246e-05
6.200366216525454e-05
7.853797207598924e-05
8.129369039444505e-05
8.129369039444505e-05
8.68051270313566e-05
8.404940871290084e-05
5.373650720988717e-05
4.82250705729756e-05
4.82250705729756e-05
3.720219729915245e-05
9.64501411459459e-06
-1.240073243305171e-05
-3.169076066224221e-05
-4.2713633936065354e-05
-5.3736507209888505e-05
-7.027081712062322e-05
-8.404940871290214e-05
-8.956084534981374e-05
-8.680512703135793e-05
-8.129369039444639e-05
-8.404940871290214e-05
-9.78280003051811e-05
-0.00010609515526054846
-0.00010058371862363688
-9.78280003051811e-05
-0.00010609515526054846
-0.00012538518348973897
-0.00014467521171892948
-0.00015294236667429682
-0.0001584538033112084
-0.00010333943694209268
7.30265354390777e-05
0.000392689860379949
0.0008528948195620654
0.0013516798352025624
0.001748503273060196
0.0019276249637598223
0.001800861921110856
0.0013516798352025624
0.0007509332417792012
-4.5469352254521147e-05
-0.0006241701991302363
-0.0006407045090409712
-0.0005084300297550932
-0.00041197988860914084
-0.0003293083390554673
-0.00026592681773098404
-0.00023010247959105888
-0.00020530101472495681
-0.00018601098649576628
-0.00016947667658503157
-0.00016396523994811996
-0.00016396523994811996
-0.0001612095216296642
-0.000150186648355841
-0.0001336523384451063
-0.0001226294651712832
-0.00012538518348973897
-0.00012538518348973897
-0.00011436231021591582
-9.78280003051811e-05
-8.956084534981374e-05
-8.680512703135793e-05
-8.404940871290214e-05
-8.129369039444639e-05
-6.751509880216745e-05
-5.6492225528344285e-05
-5.3736507209888505e-05
-5.6492225528344285e-05
-5.3736507209888505e-05
-3.995791561760957e-05
-2.8935042343786426e-05
-2.342360570687485e-05
-2.8935042343786426e-05
-1.240073243305171e-05
4.133577477683014e-06
1.5156450751506162e-05
1.7912169069961946e-05
2.3423605706873515e-05
4.546935225451981e-05
7.30265354390777e-05
8.956084534981241e-05
9.782800030517979e-05
0.00010333943694209132
0.00011436231021591448
0.0001253851834897376
0.00012814090180819342
0.00011711802853437029
0.00010333943694209132
9.507228198672396e-05
8.68051270313566e-05
7.853797207598924e-05
6.475938048371032e-05
4.82250705729756e-05
3.9957915617608246e-05
3.444647898069667e-05
2.6179324025329308e-05
4.133577477683014e-06
-1.7912169069963278e-05
-3.995791561760957e-05
-5.6492225528344285e-05
-7.027081712062322e-05
-8.404940871290214e-05
-0.00010609515526054846
-0.0001226294651712832
-0.00013089662012665053
-0.00013089662012665053
-0.0001364080567635621
-0.00015294236667429682
-0.0001612095216296642
-0.00015569808499275262
-0.00014467521171892948
-0.0001391637750820179
-0.0001336523384451063
-0.00012814090180819475
-0.00011160659189746003
-8.404940871290214e-05
-5.6492225528344285e-05
-3.4446478980697995e-05
-2.6179324025330647e-05
-1.240073243305171e-05
6.8892957961388014e-06
3.169076066224089e-05
5.373650720988717e-05
7.30265354390777e-05
8.68051270313566e-05
9.507228198672396e-05
9.507228198672396e-05
8.956084534981241e-05
8.129369039444505e-05
7.30265354390777e-05
6.475938048371032e-05
6.475938048371032e-05
5.373650720988717e-05
2.6179324025329308e-05
-1.377859159228559e-06
-1.240073243305171e-05
-2.066788738841907e-05
-3.995791561760957e-05
-5.9247943846800084e-05
-7.57822537575348e-05
-8.129369039444639e-05
-7.85379720759906e-05
-8.956084534981374e-05
-0.00010058371862363688
-0.00010609515526054846
-0.00010058371862363688
-9.78280003051811e-05
-0.00010609515526054846
-0.00012538518348973897
-0.00014467521171892948
-0.00014743093003738526
-0.00015294236667429682
-0.0001226294651712832
1.2400732433050376e-05
0.00029072828259708476
0.0007233760585946433
0.0012359396658274198
0.0016933889066910802
0.001960693583581292
0.001971716456855115
0.0016410302586404204
0.0010926423132677188
0.0003485983672846564
-0.0004422927901121546
-0.0006765288471808962
-0.0005607886778057534
-0.00044504850843061025
-0.0003568655222400251
-0.0002962397192339978
-0.0002549039444571609
-0.0002190796063172357
-0.00018876670481422206
-0.00017498811322194308
-0.00017498811322194308
-0.00017498811322194308
-0.00017223239490348733
-0.0001584538033112084
-0.00014191949340047367
-0.0001391637750820179
-0.00014191949340047367
-0.0001391637750820179
-0.00012814090180819475
-0.00011160659189746003
-0.00010333943694209268
-0.00010885087357900426
-0.00010885087357900426
-0.00010333943694209268
-8.680512703135793e-05
-7.85379720759906e-05
-7.85379720759906e-05
-7.85379720759906e-05
-7.302653543907902e-05
-5.9247943846800084e-05
-5.098078889143272e-05
-5.098078889143272e-05
-5.098078889143272e-05
-4.5469352254521147e-05
-2.6179324025330647e-05
-9.64501411459592e-06
-1.377859159228559e-06
-1.377859159228559e-06
6.8892957961388014e-06
2.6179324025329308e-05
4.82250705729756e-05
6.475938048371032e-05
7.02708171206219e-05
8.129369039444505e-05
9.507228198672396e-05
0.00011160659189745871
0.00011711802853437029
9.507228198672396e-05
8.68051270313566e-05
8.129369039444505e-05
7.02708171206219e-05
5.373650720988717e-05
3.444647898069667e-05
2.6179324025329308e-05
2.066788738841773e-05
1.2400732433050376e-05
-4.133577477684346e-06
-2.342360570687485e-05
-3.995791561760957e-05
-4.8225070572976926e-05
-5.9247943846800084e-05
-7.57822537575348e-05
-9.78280003051811e-05
-0.0001171180285343716
-0.00012538518348973897
-0.00012814090180819475
-0.0001391637750820179
-0.000150186648355841
-0.0001612095216296642
-0.0001612095216296642
-0.0001584538033112084
-0.00015569808499275262
-0.0001612095216296642
-0.0001584538033112084
-0.0001336523384451063
-0.00010609515526054846
-8.680512703135793e-05
-7.302653543907902e-05
-5.9247943846800084e-05
-4.5469352254521147e-05
-2.6179324025330647e-05
-4.133577477684346e-06
1.7912169069961946e-05
3.9957915617608246e-05
6.200366216525454e-05
7.853797207598924e-05
8.129369039444505e-05
7.578225375753347e-05
7.02708171206219e-05
6.200366216525454e-05
5.9247943846798756e-05
5.9247943846798756e-05
4.82250705729756e-05
2.3423605706873515e-05
4.133577477683014e-06
-4.133577477684346e-06
-1.5156450751507488e-05
-3.995791561760957e-05
-6.200366216525588e-05
-7.85379720759906e-05
-8.129369039444639e-05
-7.85379720759906e-05
-7.85379720759906e-05
-8.956084534981374e-05
-0.00010058371862363688
-0.00010609515526054846
-0.00010333943694209268
-9.78280003051811e-05
-0.00011160659189746003
-0.0001226294651712832
-0.0001364080567635621
-0.0001391637750820179
-0.00014467521171892948
-0.00013089662012665053
-2.066788738841907e-05
0.0006572388189517045
0.001167046707866025
0.0016465416952773319
0.00195518214694438
0.0020295865415426865
0.0017705490196078426
0.001244206820782787
0.0005359872129396498
-0.0003155297474631883
-0.0006737731288624405
-0.0005800787060349438
-0.00045882710002288904
-0.000370644113832304
-0.0003100183108262768
-0.00026592681773098404
-0.00022734676127260308
-0.00019427814145113364
-0.00018049954985885472
-0.00018049954985885472
-0.00018325526817731047
-0.0001777438315403989
-0.0001584538033112084
-0.00014467521171892948
-0.0001391637750820179
-0.0001391637750820179
-0.0001364080567635621
-0.00012538518348973897
-0.00010885087357900426
-0.00010609515526054846
-0.00010885087357900426
-0.00010609515526054846
-9.507228198672531e-05
-8.404940871290214e-05
-7.57822537575348e-05
-7.57822537575348e-05
-7.85379720759906e-05
-7.027081712062322e-05
-5.9247943846800084e-05
-4.8225070572976926e-05
-4.8225070572976926e-05
-5.098078889143272e-05
-4.2713633936065354e-05
-2.342360570687485e-05
-1.240073243305171e-05
-6.889295796140132e-06
-1.377859159228559e-06
6.8892957961388014e-06
2.8935042343785094e-05
4.82250705729756e-05
6.475938048371032e-05
7.30265354390777e-05
8.404940871290084e-05
0.00010609515526054714
0.00011987374685282605
0.00011987374685282605
0.00010885087357900291
9.782800030517979e-05
9.23165636682682e-05
8.68051270313566e-05
7.578225375753347e-05
5.373650720988717e-05
3.720219729915245e-05
2.8935042343785094e-05
2.6179324025329308e-05
1.5156450751506162e-05
-4.133577477684346e-06
-2.8935042343786426e-05
-4.2713633936065354e-05
-5.3736507209888505e-05
-7.027081712062322e-05
-8.956084534981374e-05
-0.00010333943694209268
-0.00010609515526054846
-0.00011436231021591582
-0.00012814090180819475
-0.00014743093003738526
-0.0001584538033112084
-0.0001612095216296642
-0.00015569808499275262
-0.00015569808499275262
-0.00016396523994811996
-0.0001584538033112084
-0.00014191949340047367
-0.0001171180285343716
-0.00010058371862363688
-8.404940871290214e-05
-7.027081712062322e-05
-5.9247943846800084e-05
-3.995791561760957e-05
-1.7912169069963278e-05
1.3778591592272275e-06
2.066788738841773e-05
4.546935225451981e-05
6.475938048371032e-05
6.475938048371032e-05
6.200366216525454e-05
5.649222552834297e-05
5.098078889143139e-05
5.373650720988717e-05
5.373650720988717e-05
4.271363393606403e-05
1.2400732433050376e-05
-6.889295796140132e-06
-1.240073243305171e-05
-2.6179324025330647e-05
-5.098078889143272e-05
-7.85379720759906e-05
-9.231656366826955e-05
-9.231656366826955e-05
-8.956084534981374e-05
-9.507228198672531e-05
-0.00010609515526054846
-0.00011436231021591582
-0.00011436231021591582
-0.00010885087357900426
-0.00011436231021591582
-0.00012538518348973897
-0.00014191949340047367
-0.000150186648355841
-0.000150186648355841
-0.00014743093003738526
-0.00012538518348973897
-1.240073243305171e-05
0.0002383696345464249
0.0006351930724040583
0.0011091766231784534
0.001530801525902189
0.001795350484473944
0.0018587320057984274
0.0016272516670481415
0.0011532681162737465
0.0004670942549782553
-0.00037339983215075977
-0.0007151089036392773
-0.0006076358892195017
-0.00047536140993362393
-0.00032655262073701135
-0.00027694969100480727
-0.00023285819790951464
-0.0001997895780880452
-0.00018601098649576628
-0.00018601098649576628
-0.00018049954985885472
-0.00017223239490348733
-0.0001584538033112084
-0.00014743093003738526
-0.00014467521171892948
-0.00014467521171892948
-0.0001391637750820179
-0.00012814090180819475
-0.0001171180285343716
-0.00011436231021591582
-0.00011436231021591582
-0.00010885087357900426
-9.507228198672531e-05
-8.680512703135793e-05
-8.129369039444639e-05
-8.404940871290214e-05
-8.129369039444639e-05
-7.302653543907902e-05
-6.200366216525588e-05
-5.3736507209888505e-05
-5.3736507209888505e-05
-5.098078889143272e-05
-4.2713633936065354e-05
-2.6179324025330647e-05
-1.5156450751507488e-05
-9.64501411459592e-06
-1.377859159228559e-06
1.2400732433050376e-05
3.720219729915245e-05
5.9247943846798756e-05
7.30265354390777e-05
8.68051270313566e-05
0.00010333943694209132
0.0001253851834897376
0.00013916377508201656
0.00013916377508201656
0.00013089662012664922
0.00011711802853437029
0.00011160659189745871
0.00010885087357900291
9.507228198672396e-05
7.02708171206219e-05
4.546935225451981e-05
3.444647898069667e-05
2.6179324025329308e-05
9.64501411459459e-06
-1.7912169069963278e-05
-3.720219729915378e-05
-4.8225070572976926e-05
-5.098078889143272e-05
-6.200366216525588e-05
-7.85379720759906e-05
-9.78280003051811e-05
-0.00010609515526054846
-0.00010609515526054846
-0.00011160659189746003
-0.00012814090180819475
-0.00014467521171892948
-0.00015294236667429682
-0.00015569808499275262
-0.00015569808499275262
-0.0001612095216296642
-0.00016672095826657574
-0.00014467521171892948
-0.00012538518348973897
-0.00011160659189746003
-0.00010058371862363688
-8.680512703135793e-05
-6.751509880216745e-05
-5.098078889143272e-05
-3.4446478980697995e-05
-1.7912169069963278e-05
4.133577477683014e-06
3.169076066224089e-05
4.82250705729756e-05
4.82250705729756e-05
4.546935225451981e-05
3.9957915617608246e-05
3.9957915617608246e-05
4.271363393606403e-05
4.271363393606403e-05
2.8935042343785094e-05
1.3778591592272275e-06
-1.7912169069963278e-05
-2.066788738841907e-05
-3.169076066224221e-05
-5.6492225528344285e-05
-8.404940871290214e-05
-9.507228198672531e-05
-9.78280003051811e-05
-9.78280003051811e-05
-0.00010058371862363688
-0.00011160659189746003
-0.0001198737468528274
-0.0001226294651712832
-0.00011436231021591582
-0.0001198737468528274
-0.0001336523384451063
-0.00014743093003738526
-0.000150186648355841
-0.00014191949340047367
-0.00012814090180819475
-9.231656366826955e-05
2.066788738841773e-05
0.0002686825360494386
0.0006434602273594254
0.0010623294117647053
0.0014067942015716782
0.001618984512092774
0.0016630760051880667
0.0014563971313038828
0.0010017036087586776
0.000340331212329289
-0.0004257584802014197
-0.0007068417486839102
-0.0005993687342641343
-0.0004698499732967123
-0.0003816669871061273
-0.00032379690241855563
-0.00027143825436789566
-0.00023010247959105888
-0.0001997895780880452
-0.00018876670481422206
-0.00018876670481422206
-0.00018601098649576628
-0.00017498811322194308
-0.0001584538033112084
-0.000150186648355841
-0.000150186648355841
-0.00015294236667429682
-0.00014191949340047367
-0.0001226294651712832
-0.0001226294651712832
-0.00012538518348973897
-0.0001226294651712832
-0.00010885087357900426
-0.00010333943694209268
-0.00010058371862363688
-0.00010058371862363688
-9.507228198672531e-05
-8.680512703135793e-05
-7.302653543907902e-05
-7.027081712062322e-05
-7.027081712062322e-05
-6.751509880216745e-05
-5.9247943846800084e-05
-4.2713633936065354e-05
-3.4446478980697995e-05
-3.4446478980697995e-05
-2.6179324025330647e-05
-1.240073243305171e-05
9.64501411459459e-06
2.6179324025329308e-05
3.9957915617608246e-05
5.098078889143139e-05
6.751509880216611e-05
8.956084534981241e-05
0.00010333943694209132
9.782800030517979e-05
8.68051270313566e-05
7.853797207598924e-05
7.578225375753347e-05
7.30265354390777e-05
5.373650720988717e-05
3.444647898069667e-05
2.3423605706873515e-05
1.2400732433050376e-05
4.133577477683014e-06
-1.5156450751507488e-05
-3.720219729915378e-05
-5.3736507209888505e-05
-6.200366216525588e-05
-6.751509880216745e-05
-8.129369039444639e-05
-9.507228198672531e-05
-0.00010058371862363688
-0.00010333943694209268
-0.00010333943694209268
-0.00010885087357900426
-0.0001226294651712832
-0.0001364080567635621
-0.00014467521171892948
-0.00014467521171892948
-0.00014467521171892948
-0.00015294236667429682
-0.00016396523994811996
-0.0001584538033112084
-0.00014191949340047367
-0.00012538518348973897
-0.00011160659189746003
-0.00010058371862363688
-9.231656366826955e-05
-7.57822537575348e-05
-6.475938048371164e-05
-5.3736507209888505e-05
-3.720219729915378e-05
-1.5156450751507488e-05
6.8892957961388014e-06
2.066788738841773e-05
2.066788738841773e-05
1.7912169069961946e-05
2.066788738841773e-05
2.3423605706873515e-05
2.066788738841773e-05
1.2400732433050376e-05
-9.64501411459592e-06
-2.342360570687485e-05
-2.8935042343786426e-05
-3.995791561760957e-05
-6.475938048371164e-05
-8.680512703135793e-05
-9.78280003051811e-05
-9.507228198672531e-05
-9.507228198672531e-05
-0.00010609515526054846
-0.00011436231021591582
-0.0001226294651712832
-0.0001171180285343716
-0.00011160659189746003
-0.0001198737468528274
-0.0001336523384451063
-0.00014743093003738526
-0.000150186648355841
-0.00014191949340047367
-0.0001336523384451063
-0.00010058371862363688
1.2400732433050376e-05
0.0002686825360494386
0.0006434602273594254
0.0010457951018539703
0.001376481300068665
0.0015693815823605698
0.0015914273289082165
0.0013571912718394743
0.0008914748760204465
0.00022459104295414594
-0.00048362856488899143
-0.0006875517204547195
-0.0005663001144426648
-0.000447804226749066
-0.00036788839551384826
-0.00030726259250782084
-0.00024939250782024937
-0.0002108124513618684
-0.00018325526817731047
-0.0001777438315403989
-0.0001777438315403989
-0.00017498811322194308
-0.0001612095216296642
-0.00014743093003738526
-0.00014467521171892948
-0.00014191949340047367
-0.0001364080567635621
-0.00012814090180819475
-0.0001171180285343716
-0.00011160659189746003
-0.00011160659189746003
-0.00011160659189746003
-0.00010333943694209268
-9.231656366826955e-05
-8.404940871290214e-05
-8.404940871290214e-05
-8.680512703135793e-05
-8.404940871290214e-05
-6.751509880216745e-05
-5.6492225528344285e-05
-5.6492225528344285e-05
-5.6492225528344285e-05
-4.2713633936065354e-05
-3.169076066224221e-05
-3.169076066224221e-05
-2.8935042343786426e-05
-2.342360570687485e-05
-9.64501411459592e-06
1.2400732433050376e-05
2.3423605706873515e-05
2.8935042343785094e-05
3.444647898069667e-05
5.098078889143139e-05
7.30265354390777e-05
8.129369039444505e-05
7.578225375753347e-05
6.475938048371032e-05
5.9247943846798756e-05
5.9247943846798756e-05
4.82250705729756e-05
3.169076066224089e-05
9.64501411459459e-06
1.3778591592272275e-06
-1.377859159228559e-06
-1.240073243305171e-05
-2.8935042343786426e-05
-4.8225070572976926e-05
-5.9247943846800084e-05
-6.475938048371164e-05
-7.027081712062322e-05
-8.404940871290214e-05
-9.231656366826955e-05
-0.00010058371862363688
-0.00010333943694209268
-0.00010058371862363688
-0.00010609515526054846
-0.0001198737468528274
-0.00012814090180819475
-0.00012538518348973897
-0.0001226294651712832
-0.00012538518348973897
-0.0001336523384451063
-0.00014191949340047367
-0.0001391637750820179
-0.0001171180285343716
-0.00010058371862363688
-8.956084534981374e-05
-8.404940871290214e-05
-7.027081712062322e-05
-5.9247943846800084e-05
-4.2713633936065354e-05
-3.169076066224221e-05
-1.7912169069963278e-05
4.133577477683014e-06
3.444647898069667e-05
5.373650720988717e-05
5.098078889143139e-05
4.546935225451981e-05
4.546935225451981e-05
4.82250705729756e-05
5.098078889143139e-05
4.546935225451981e-05
3.169076066224089e-05
9.64501411459459e-06
-1.377859159228559e-06
-6.889295796140132e-06
-2.342360570687485e-05
-4.8225070572976926e-05
-7.027081712062322e-05
-7.85379720759906e-05
-7.85379720759906e-05
-8.680512703135793e-05
-0.00010333943694209268
-0.00010333943694209268
-0.00010058371862363688
-9.78280003051811e-05
-0.00010609515526054846
-0.0001198737468528274
-0.00012538518348973897
-0.00013089662012665053
-0.0001336523384451063
-0.00014467521171892948
-0.0001391637750820179
-5.098078889143272e-05
0.00017774383154039756
0.0005552772411688404
0.0010127264820325008
0.0014178170748455018
0.001671343160143434
0.0017099232166018147
0.0014288399481193247
0.0009190320592050041
0.0002383696345464249
-0.00048638428320744705
-0.0006958188754100868
-0.0005663001144426648
-0.00045055994506752175
-0.00036788839551384826
-0.0003045068741893651
-0.0002521482261387052
-0.00020530101472495681
-0.00018049954985885472
-0.0001777438315403989
-0.00018049954985885472
-0.00016947667658503157
-0.000150186648355841
-0.0001364080567635621
-0.0001336523384451063
-0.0001336523384451063
-0.00013089662012665053
-0.0001198737468528274
-0.00010885087357900426
-0.00010609515526054846
-0.00010609515526054846
-0.00010333943694209268
-9.507228198672531e-05
-7.85379720759906e-05
-7.027081712062322e-05
-7.302653543907902e-05
-7.027081712062322e-05
-6.200366216525588e-05
-5.098078889143272e-05
-4.2713633936065354e-05
-4.2713633936065354e-05
-4.5469352254521147e-05
-3.720219729915378e-05
-2.066788738841907e-05
-9.64501411459592e-06
-6.889295796140132e-06
-6.889295796140132e-06
-1.377859159228559e-06
1.7912169069961946e-05
3.720219729915245e-05
4.82250705729756e-05
5.373650720988717e-05
6.200366216525454e-05
7.853797207598924e-05
9.782800030517979e-05
9.782800030517979e-05
8.956084534981241e-05
8.68051270313566e-05
8.404940871290084e-05
7.578225375753347e-05
5.9247943846798756e-05
4.271363393606403e-05
3.444647898069667e-05
3.720219729915245e-05
3.444647898069667e-05
1.5156450751506162e-05
-9.64501411459592e-06
-2.6179324025330647e-05
-3.4446478980697995e-05
-5.098078889143272e-05
-7.302653543907902e-05
-9.231656366826955e-05
-0.00010333943694209268
-0.00010609515526054846
-0.00010885087357900426
-0.0001198737468528274
-0.0001336523384451063
-0.00014467521171892948
-0.00014467521171892948
-0.0001336523384451063
-0.0001336523384451063
-0.0001364080567635621
-0.0001336523384451063
-0.0001198737468528274
-9.507228198672531e-05
-7.57822537575348e-05
-6.200366216525588e-05
-4.8225070572976926e-05
-3.4446478980697995e-05
-1.5156450751507488e-05
-1.377859159228559e-06
9.64501411459459e-06
2.6179324025329308e-05
5.373650720988717e-05
7.853797207598924e-05
8.956084534981241e-05
8.129369039444505e-05
7.30265354390777e-05
6.751509880216611e-05
6.475938048371032e-05
6.200366216525454e-05
5.373650720988717e-05
3.720219729915245e-05
1.2400732433050376e-05
1.3778591592272275e-06
-4.133577477684346e-06
-2.6179324025330647e-05
-5.3736507209888505e-05
-7.302653543907902e-05
-7.57822537575348e-05
-7.302653543907902e-05
-7.85379720759906e-05
-8.956084534981374e-05
-9.78280003051811e-05
-0.00010333943694209268
-0.00010058371862363688
-9.78280003051811e-05
-0.00010885087357900426
-0.0001198737468528274
-0.0001336523384451063
-0.0001364080567635621
-0.00014191949340047367
-0.0001612095216296642
1.5156450751506162e-05
0.00031001831082627527
0.0007343989318684667
0.001205626764324406
0.0015748930189974813
0.0017457475547417404
0.001630007385366597
0.001205626764324406
0.0006241701991302349
-0.0001391637750820179
-0.0006765288471808962
-0.0006710174105439848
-0.0005194529030289164
-0.0004202470435645082
-0.0003458426489662019
-0.00027970540932326305
-0.00023010247959105888
-0.00019152242313267784
-0.00017498811322194308
-0.00017223239490348733
-0.00016947667658503157
-0.0001584538033112084
-0.00014191949340047367
-0.0001336523384451063
-0.00013089662012665053
-0.00013089662012665053
-0.00012538518348973897
-0.00010885087357900426
-9.78280003051811e-05
-9.507228198672531e-05
-9.78280003051811e-05
-9.507228198672531e-05
-8.129369039444639e-05
-6.475938048371164e-05
-5.6492225528344285e-05
-5.9247943846800084e-05
-5.3736507209888505e-05
-4.5469352254521147e-05
-3.4446478980697995e-05
-2.8935042343786426e-05
-2.8935042343786426e-05
-2.8935042343786426e-05
-2.066788738841907e-05
-4.133577477684346e-06
9.64501411459459e-06
1.5156450751506162e-05
1.7912169069961946e-05
2.6179324025329308e-05
4.82250705729756e-05
7.02708171206219e-05
7.853797207598924e-05
8.956084534981241e-05
0.00010333943694209132
0.00011987374685282605
0.00013640805676356078
0.00013916377508201656
0.00013089662012664922
0.00012262946517128183
0.00011711802853437029
0.00011711802853437029
0.00010885087357900291
9.23165636682682e-05
7.853797207598924e-05
7.30265354390777e-05
6.751509880216611e-05
5.098078889143139e-05
2.6179324025329308e-05
-4.133577477684346e-06
-4.8225070572976926e-05
-6.475938048371164e-05
-8.680512703135793e-05
-0.00010609515526054846
-0.0001198737468528274
-0.0001226294651712832
-0.00012538518348973897
-0.0001336523384451063
-0.00014467521171892948
-0.00014467521171892948
-0.0001364080567635621
-0.00012538518348973897
-0.0001226294651712832
-0.0001226294651712832
-0.00011436231021591582
-9.231656366826955e-05
-6.751509880216745e-05
-5.098078889143272e-05
-3.720219729915378e-05
-2.6179324025330647e-05
-1.240073243305171e-05
4.133577477683014e-06
2.066788738841773e-05
3.9957915617608246e-05
5.649222552834297e-05
7.853797207598924e-05
9.23165636682682e-05
8.956084534981241e-05
8.129369039444505e-05
7.30265354390777e-05
6.475938048371032e-05
6.751509880216611e-05
6.200366216525454e-05
4.82250705729756e-05
2.3423605706873515e-05
1.3778591592272275e-06
-6.889295796140132e-06
-2.066788738841907e-05
-4.5469352254521147e-05
-7.027081712062322e-05
-8.129369039444639e-05
-8.129369039444639e-05
-7.85379720759906e-05
-8.404940871290214e-05
-9.507228198672531e-05
-0.00010333943694209268
-0.00010333943694209268
-9.78280003051811e-05
-0.00010058371862363688
-0.00011436231021591582
-0.00012538518348973897
-0.0001336523384451063
-0.0001391637750820179
-0.000150186648355841
-0.00014743093003738526
-4.2713633936065354e-05
0.00020254529640649968
0.0005938572976272215
0.0010816194399938957
0.0015335572442206446
0.0018146405127031347
0.001853220569161516
0.0015666258640421142
0.001037527946898603
0.0003293083390554659
-0.0004422927901121546
-0.0006903074387731753
-0.0005690558327611206
-0.00036237695887693665
-0.0002962397192339978
-0.00024388107118333775
-0.00020530101472495681
-0.00018049954985885472
-0.00016947667658503157
-0.00016947667658503157
-0.00016672095826657574
-0.00015294236667429682
-0.0001391637750820179
-0.00013089662012665053
-0.00013089662012665053
-0.00013089662012665053
-0.0001226294651712832
-0.00011160659189746003
-0.00010058371862363688
-9.231656366826955e-05
-9.78280003051811e-05
-9.507228198672531e-05
-8.129369039444639e-05
-6.751509880216745e-05
-6.751509880216745e-05
-6.751509880216745e-05
-6.475938048371164e-05
-5.6492225528344285e-05
-4.2713633936065354e-05
-3.720219729915378e-05
-3.720219729915378e-05
-3.4446478980697995e-05
-2.342360570687485e-05
-6.889295796140132e-06
1.3778591592272275e-06
9.64501411459459e-06
1.7912169069961946e-05
2.6179324025329308e-05
5.098078889143139e-05
7.02708171206219e-05
8.404940871290084e-05
8.956084534981241e-05
0.00010609515526054714
0.0001253851834897376
0.00014191949340047234
0.00013916377508201656
0.0001253851834897376
0.00011160659189745871
0.00010885087357900291
0.00010333943694209132
9.23165636682682e-05
7.578225375753347e-05
6.200366216525454e-05
5.649222552834297e-05
5.098078889143139e-05
3.720219729915245e-05
1.5156450751506162e-05
-6.889295796140132e-06
-2.6179324025330647e-05
-3.995791561760957e-05
-5.6492225528344285e-05
-8.404940871290214e-05
-0.00010609515526054846
-0.00011436231021591582
-0.0001171180285343716
-0.00012538518348973897
-0.00014191949340047367
-0.00015569808499275262
-0.0001612095216296642
-0.00015294236667429682
-0.00014467521171892948
-0.00014743093003738526
-0.0001391637750820179
-0.0001171180285343716
-8.404940871290214e-05
-6.200366216525588e-05
-4.8225070572976926e-05
-3.720219729915378e-05
-2.066788738841907e-05
1.3778591592272275e-06
2.3423605706873515e-05
4.271363393606403e-05
6.200366216525454e-05
8.129369039444505e-05
9.23165636682682e-05
8.68051270313566e-05
8.404940871290084e-05
7.30265354390777e-05
6.751509880216611e-05
7.02708171206219e-05
6.475938048371032e-05
4.271363393606403e-05
1.5156450751506162e-05
-1.377859159228559e-06
-9.64501411459592e-06
-2.342360570687485e-05
-4.8225070572976926e-05
-7.302653543907902e-05
-8.129369039444639e-05
-7.57822537575348e-05
-7.57822537575348e-05
-8.404940871290214e-05
-9.78280003051811e-05
-0.00010333943694209268
-0.00010333943694209268
-0.00010058371862363688
-0.00010333943694209268
-0.0001198737468528274
-0.0001364080567635621
-0.00014191949340047367
-0.00014743093003738526
-0.00015294236667429682
-0.00010058371862363688
8.956084534981241e-05
0.0004340256351567857
0.0009162763408865484
0.0014123056382085901
0.001795350484473944
0.0019634493018997477
0.0018366862592507814
0.0013985270466163114
0.0007784904249637591
-4.8225070572976926e-05
-0.0006324373540856038
-0.0006407045090409712
-0.0005029185931181816
-0.00040922417029068495
-0.0003375754940108345
-0.00027970540932326305
-0.00024112535286488197
-0.00020530101472495681
-0.00018601098649576628
-0.00018325526817731047
-0.00018049954985885472
-0.0001777438315403989
-0.00016672095826657574
-0.000150186648355841
-0.00014467521171892948
-0.00014191949340047367
-0.00014191949340047367
-0.0001198737468528274
-0.00011160659189746003
-0.00011160659189746003
-0.00010885087357900426
-0.00010058371862363688
-8.680512703135793e-05
-8.129369039444639e-05
-8.129369039444639e-05
-8.404940871290214e-05
-8.404940871290214e-05
-7.027081712062322e-05
-5.6492225528344285e-05
-5.6492225528344285e-05
-5.9247943846800084e-05
-5.3736507209888505e-05
-3.720219729915378e-05
-2.066788738841907e-05
-1.7912169069963278e-05
-1.240073243305171e-05
-4.133577477684346e-06
1.5156450751506162e-05
3.720219729915245e-05
5.373650720988717e-05
6.475938048371032e-05
7.578225375753347e-05
9.507228198672396e-05
0.00011436231021591448
0.00012262946517128183
0.00011711802853437029
0.00010333943694209132
9.507228198672396e-05
9.23165636682682e-05
8.404940871290084e-05
6.200366216525454e-05
4.271363393606403e-05
3.444647898069667e-05
3.169076066224089e-05
2.3423605706873515e-05
4.133577477683014e-06
-1.5156450751507488e-05
-3.4446478980697995e-05
-4.2713633936065354e-05
-5.098078889143272e-05
-6.475938048371164e-05
-8.404940871290214e-05
-0.00010058371862363688
-0.00010333943694209268
-0.00011436231021591582
-0.00012538518348973897
-0.00014467521171892948
-0.00015569808499275262
-0.0001612095216296642
-0.0001584538033112084
-0.0001584538033112084
-0.0001612095216296642
-0.0001612095216296642
-0.000150186648355841
-0.0001226294651712832
-9.78280003051811e-05
-8.404940871290214e-05
-7.027081712062322e-05
-6.475938048371164e-05
-4.2713633936065354e-05
-9.64501411459592e-06
1.7912169069961946e-05
3.9957915617608246e-05
5.9247943846798756e-05
7.02708171206219e-05
7.30265354390777e-05
6.475938048371032e-05
5.649222552834297e-05
5.649222552834297e-05
5.9247943846798756e-05
5.373650720988717e-05
2.8935042343785094e-05
4.133577477683014e-06
-1.240073243305171e-05
-2.342360570687485e-05
-3.995791561760957e-05
-6.751509880216745e-05
-8.404940871290214e-05
-8.956084534981374e-05
-8.404940871290214e-05
-8.404940871290214e-05
-9.231656366826955e-05
-0.00010609515526054846
-0.00010885087357900426
-0.00010609515526054846
-0.00010333943694209268
-0.00011160659189746003
-0.00013089662012665053
-0.00014467521171892948
-0.00015294236667429682
-0.00015569808499275262
-0.00010885087357900426
5.098078889143139e-05
0.00035410980392156795
0.0008115590447852286
0.001324122652018005
0.0017567704280155635
0.001996517921721217
0.0019662050202182034
0.0015941830472266717
0.0010209936369878683
0.00022734676127260172
-0.0005194529030289164
-0.0006655059739070732
-0.0005332314946211955
-0.0004285141985198755
-0.0003485983672846577
-0.00029072828259708617
-0.00024939250782024937
-0.00021632388799877996
-0.00018601098649576628
-0.00017498811322194308
-0.00017498811322194308
-0.00017498811322194308
-0.00016947667658503157
-0.00015569808499275262
-0.00014467521171892948
-0.0001391637750820179
-0.0001391637750820179
-0.0001391637750820179
-0.00012538518348973897
-0.00011436231021591582
-0.00010885087357900426
-0.00011436231021591582
-0.00010885087357900426
-9.507228198672531e-05
-8.404940871290214e-05
-7.57822537575348e-05
-7.85379720759906e-05
-8.404940871290214e-05
-7.57822537575348e-05
-6.200366216525588e-05
-5.3736507209888505e-05
-5.3736507209888505e-05
-4.8225070572976926e-05
-3.169076066224221e-05
-1.7912169069963278e-05
-1.5156450751507488e-05
-1.240073243305171e-05
1.3778591592272275e-06
2.3423605706873515e-05
5.098078889143139e-05
6.751509880216611e-05
7.578225375753347e-05
8.956084534981241e-05
0.00011160659189745871
0.00012814090180819342
0.00012814090180819342
0.00011987374685282605
0.00010609515526054714
9.782800030517979e-05
9.23165636682682e-05
8.129369039444505e-05
6.475938048371032e-05
4.546935225451981e-05
3.444647898069667e-05
3.169076066224089e-05
1.7912169069961946e-05
-4.133577477684346e-06
-2.342360570687485e-05
-3.720219729915378e-05
-4.5469352254521147e-05
-5.098078889143272e-05
-6.200366216525588e-05
-7.85379720759906e-05
-9.231656366826955e-05
-9.507228198672531e-05
-9.507228198672531e-05
-0.00010609515526054846
-0.00012538518348973897
-0.00014191949340047367
-0.00014467521171892948
-0.00014191949340047367
-0.00014191949340047367
-0.000150186648355841
-0.00014467521171892948
-0.00013089662012665053
-0.00010333943694209268
-8.129369039444639e-05
-7.302653543907902e-05
-7.027081712062322e-05
-5.9247943846800084e-05
-2.8935042343786426e-05
4.133577477683014e-06
2.8935042343785094e-05
4.82250705729756e-05
5.649222552834297e-05
6.475938048371032e-05
7.578225375753347e-05
7.578225375753347e-05
6.751509880216611e-05
5.649222552834297e-05
5.649222552834297e-05
5.9247943846798756e-05
3.720219729915245e-05
1.5156450751506162e-05
-4.133577477684346e-06
-1.7912169069963278e-05
-3.169076066224221e-05
-5.098078889143272e-05
-7.027081712062322e-05
-8.956084534981374e-05
-8.404940871290214e-05
-8.404940871290214e-05
-9.507228198672531e-05
-0.00010609515526054846
-0.00011160659189746003
-0.00010885087357900426
-0.00010885087357900426
-0.0001226294651712832
-0.00014191949340047367
-0.000150186648355841
-0.00014743093003738526
-0.00010609515526054846
2.8935042343785094e-05
0.000301751155870908
0.0007288874952315547
0.001224916792553597
0.0016658317235065223
0.0019248692454413665
0.0019414035553521009
0.0016382745403219644
0.0011146880598153653
0.0003844227054245816
-0.0004312699168383313
-0.0006930631570916311
-0.0005800787060349438
-0.00046433853665980087
-0.000370644113832304
-0.0002989954375524536
-0.0002549039444571609
-0.00023010247959105888
-0.0002080567330434125
-0.00018601098649576628
-0.00017498811322194308
-0.00017223239490348733
-0.00017498811322194308
-0.00016672095826657574
-0.00015294236667429682
-0.0001391637750820179
-0.0001364080567635621
-0.0001364080567635621
-0.0001336523384451063
-0.0001198737468528274
-0.00010058371862363688
-9.78280003051811e-05
-0.00010609515526054846
-0.00010333943694209268
-9.231656366826955e-05
-7.85379720759906e-05
-7.027081712062322e-05
-7.302653543907902e-05
-7.027081712062322e-05
-6.475938048371164e-05
-5.098078889143272e-05
-3.995791561760957e-05
-3.720219729915378e-05
-3.720219729915378e-05
-3.169076066224221e-05
-1.5156450751507488e-05
1.3778591592272275e-06
9.64501411459459e-06
1.2400732433050376e-05
2.6179324025329308e-05
5.373650720988717e-05
7.853797207598924e-05
9.507228198672396e-05
0.00010609515526054714
0.00011711802853437029
0.00013089662012664922
0.00013640805676356078
0.00012262946517128183
0.00010885087357900291
0.00010058371862363556
9.23165636682682e-05
7.578225375753347e-05
5.649222552834297e-05
3.444647898069667e-05
2.3423605706873515e-05
1.5156450751506162e-05
-1.377859159228559e-06
-2.6179324025330647e-05
-4.8225070572976926e-05
-6.200366216525588e-05
-6.475938048371164e-05
-7.027081712062322e-05
-8.404940871290214e-05
-0.00010058371862363688
-0.00011436231021591582
-0.00011436231021591582
-0.0001198737468528274
-0.0001336523384451063
-0.000150186648355841
-0.0001584538033112084
-0.0001584538033112084
-0.00015294236667429682
-0.00015294236667429682
-0.00015294236667429682
-0.00014467521171892948
-0.0001226294651712832
-9.507228198672531e-05
-8.404940871290214e-05
-7.85379720759906e-05
-7.57822537575348e-05
-5.6492225528344285e-05
-2.342360570687485e-05
6.8892957961388014e-06
2.3423605706873515e-05
3.169076066224089e-05
3.720219729915245e-05
5.098078889143139e-05
5.9247943846798756e-05
5.098078889143139e-05
3.720219729915245e-05
2.8935042343785094e-05
3.444647898069667e-05
2.3423605706873515e-05
4.133577477683014e-06
-1.7912169069963278e-05
-3.720219729915378e-05
-4.8225070572976926e-05
-6.200366216525588e-05
-7.85379720759906e-05
-9.507228198672531e-05
-0.00010885087357900426
-0.00010885087357900426
-0.00010333943694209268
-0.00010609515526054846
-0.00011436231021591582
-0.0001226294651712832
-0.00012814090180819475
-0.00012538518348973897
-0.00012814090180819475
-0.00014467521171892948
-0.00015569808499275262
-0.00014467521171892948
-0.00010058371862363688
6.8892957961388014e-06
0.000585590142671854
0.001007215045395589
0.0013957713282978553
0.0016658317235065223
0.0017540147096971076
0.001580404455634393
0.0011505123979552907
0.0005304757763027383
-0.00027970540932326305
-0.0006930631570916311
-0.0006351930724040594
-0.0005139414663920051
-0.0004147356069275966
-0.0003348197756923787
-0.00027419397268635144
-0.00023836963454642628
-0.0002190796063172357
-0.00020254529640650095
-0.00018601098649576628
-0.0001777438315403989
-0.0001777438315403989
-0.0001777438315403989
-0.00016947667658503157
-0.00015294236667429682
-0.00014467521171892948
-0.00014191949340047367
-0.00014467521171892948
-0.00014191949340047367
-0.00012814090180819475
-0.0001198737468528274
-0.0001171180285343716
-0.0001198737468528274
-0.0001171180285343716
-0.00010333943694209268
-9.231656366826955e-05
-8.680512703135793e-05
-9.231656366826955e-05
-9.231656366826955e-05
-7.85379720759906e-05
-6.200366216525588e-05
-5.3736507209888505e-05
-5.3736507209888505e-05
-5.3736507209888505e-05
-4.2713633936065354e-05
-2.066788738841907e-05
-9.64501411459592e-06
-9.64501411459592e-06
1.3778591592272275e-06
2.3423605706873515e-05
4.82250705729756e-05
6.475938048371032e-05
7.853797207598924e-05
8.956084534981241e-05
0.00010058371862363556
0.00011711802853437029
0.00011711802853437029
0.00010885087357900291
9.23165636682682e-05
7.853797207598924e-05
7.02708171206219e-05
6.200366216525454e-05
4.82250705729756e-05
2.6179324025329308e-05
6.8892957961388014e-06
-1.377859159228559e-06
-1.240073243305171e-05
-2.8935042343786426e-05
-5.3736507209888505e-05
-7.85379720759906e-05
-8.129369039444639e-05
-8.680512703135793e-05
-0.00010058371862363688
-0.00011160659189746003
-0.0001171180285343716
-0.00011436231021591582
-0.0001171180285343716
-0.00012814090180819475
-0.00014191949340047367
-0.00015294236667429682
-0.00015294236667429682
-0.00014467521171892948
-0.00014467521171892948
-0.00014191949340047367
-0.0001336523384451063
-0.00011160659189746003
-9.231656366826955e-05
-8.404940871290214e-05
-8.404940871290214e-05
-7.57822537575348e-05
-5.098078889143272e-05
-1.7912169069963278e-05
4.133577477683014e-06
6.8892957961388014e-06
6.8892957961388014e-06
1.7912169069961946e-05
3.444647898069667e-05
3.720219729915245e-05
2.6179324025329308e-05
1.7912169069961946e-05
2.066788738841773e-05
2.3423605706873515e-05
9.64501411459459e-06
-9.64501411459592e-06
-3.4446478980697995e-05
-5.3736507209888505e-05
-6.475938048371164e-05
-7.302653543907902e-05
-8.680512703135793e-05
-0.00010333943694209268
-0.00010609515526054846
-0.00010609515526054846
-0.00010333943694209268
-0.00010609515526054846
-0.0001171180285343716
-0.00012538518348973897
-0.00012538518348973897
-0.0001226294651712832
-0.0001336523384451063
-0.00014743093003738526
-0.000150186648355841
-0.0001198737468528274
-3.169076066224221e-05
0.00016120952162966288
0.0004726056916151668
0.0008611619745174325
0.0012331839475089635
0.00151702293430991
0.0016382745403219644
0.0015335572442206446
0.0011560238345922017
0.0005911015793087656
-0.00015294236667429682
-0.0006434602273594267
-0.0006407045090409712
-0.0005166971847104609
-0.000423002761882964
-0.00027970540932326305
-0.00023010247959105888
-0.0002080567330434125
-0.00020254529640650095
-0.00018876670481422206
-0.00017223239490348733
-0.00016396523994811996
-0.00016396523994811996
-0.00016396523994811996
-0.00015569808499275262
-0.0001391637750820179
-0.00012814090180819475
-0.00013089662012665053
-0.00013089662012665053
-0.00012814090180819475
-0.00011436231021591582
-0.00010609515526054846
-0.00010333943694209268
-0.00010333943694209268
-0.00010333943694209268
-9.231656366826955e-05
-8.129369039444639e-05
-7.85379720759906e-05
-8.404940871290214e-05
-8.680512703135793e-05
-7.57822537575348e-05
-6.475938048371164e-05
-5.6492225528344285e-05
-5.3736507209888505e-05
-5.3736507209888505e-05
-4.2713633936065354e-05
-2.8935042343786426e-05
-1.7912169069963278e-05
-1.240073243305171e-05
-1.377859159228559e-06
1.5156450751506162e-05
3.720219729915245e-05
5.9247943846798756e-05
6.475938048371032e-05
6.751509880216611e-05
7.02708171206219e-05
7.578225375753347e-05
7.578225375753347e-05
6.475938048371032e-05
3.9957915617608246e-05
2.6179324025329308e-05
2.3423605706873515e-05
1.7912169069961946e-05
4.133577477683014e-06
-1.5156450751507488e-05
-3.169076066224221e-05
-3.995791561760957e-05
-4.5469352254521147e-05
-6.200366216525588e-05
-8.404940871290214e-05
-9.507228198672531e-05
-9.78280003051811e-05
-9.78280003051811e-05
-0.00010058371862363688
-0.00010885087357900426
-0.0001226294651712832
-0.0001226294651712832
-0.0001226294651712832
-0.00012538518348973897
-0.0001364080567635621
-0.00014743093003738526
-0.000150186648355841
-0.00014467521171892948
-0.0001364080567635621
-0.00012814090180819475
-0.0001171180285343716
-9.507228198672531e-05
-7.57822537575348e-05
-6.751509880216745e-05
-6.751509880216745e-05
-5.6492225528344285e-05
-2.8935042343786426e-05
-1.377859159228559e-06
2.066788738841773e-05
2.3423605706873515e-05
2.066788738841773e-05
2.8935042343785094e-05
4.271363393606403e-05
3.720219729915245e-05
2.3423605706873515e-05
1.5156450751506162e-05
1.7912169069961946e-05
1.2400732433050376e-05
-1.377859159228559e-06
-2.066788738841907e-05
-4.2713633936065354e-05
-5.9247943846800084e-05
-6.751509880216745e-05
-7.027081712062322e-05
-8.129369039444639e-05
-9.507228198672531e-05
-9.78280003051811e-05
-9.231656366826955e-05
-8.956084534981374e-05
-9.507228198672531e-05
-0.00010885087357900426
-0.00011436231021591582
-0.00011160659189746003
-0.00011160659189746003
-0.0001226294651712832
-0.0001364080567635621
-0.00014191949340047367
-0.00011160659189746003
9.64501411459459e-06
0.000263171099412527
0.0006434602273594254
0.0010871308766308072
0.0014784428778515288
0.0017181903715571825
0.0017292132448310056
0.0014260842298008686
0.000908009185931181
0.00020805673304341124
-0.0004891400015259028
-0.00065448310063325
-0.0005387429312581068
-0.00043953707179369863
-0.0003568655222400251
-0.00027970540932326305
-0.00022459104295414727
-0.00018876670481422206
-0.00017498811322194308
-0.00016947667658503157
-0.00015569808499275262
-0.0001364080567635621
-0.0001336523384451063
-0.0001364080567635621
-0.0001336523384451063
-0.0001226294651712832
-0.00010885087357900426
-0.00010058371862363688
-0.00010609515526054846
-9.507228198672531e-05
-8.404940871290214e-05
-7.57822537575348e-05
-7.302653543907902e-05
-7.85379720759906e-05
-7.302653543907902e-05
-5.9247943846800084e-05
-4.8225070572976926e-05
-4.8225070572976926e-05
-5.098078889143272e-05
-4.8225070572976926e-05
-3.720219729915378e-05
-2.6179324025330647e-05
-2.066788738841907e-05
-2.6179324025330647e-05
-2.342360570687485e-05
-1.240073243305171e-05
4.133577477683014e-06
1.2400732433050376e-05
1.7912169069961946e-05
2.066788738841773e-05
3.9957915617608246e-05
6.200366216525454e-05
7.30265354390777e-05
7.30265354390777e-05
7.30265354390777e-05
7.578225375753347e-05
7.578225375753347e-05
7.02708171206219e-05
5.373650720988717e-05
3.444647898069667e-05
2.066788738841773e-05
2.3423605706873515e-05
1.7912169069961946e-05
4.133577477683014e-06
-9.64501411459592e-06
-2.342360570687485e-05
-2.6179324025330647e-05
-3.169076066224221e-05
-4.2713633936065354e-05
-6.475938048371164e-05
-7.85379720759906e-05
-8.129369039444639e-05
-8.680512703135793e-05
-9.507228198672531e-05
-0.00010885087357900426
-0.0001226294651712832
-0.00012538518348973897
-0.00012538518348973897
-0.0001336523384451063
-0.00014467521171892948
-0.00015294236667429682
-0.000150186648355841
-0.0001336523384451063
-0.0001198737468528274
-0.00011160659189746003
-0.00010058371862363688
-7.85379720759906e-05
-5.098078889143272e-05
-3.720219729915378e-05
-3.169076066224221e-05
-2.342360570687485e-05
-1.377859159228559e-06
2.8935042343785094e-05
5.9247943846798756e-05
7.30265354390777e-05
6.475938048371032e-05
6.200366216525454e-05
7.02708171206219e-05
5.9247943846798756e-05
4.546935225451981e-05
3.720219729915245e-05
2.6179324025329308e-05
1.7912169069961946e-05
4.133577477683014e-06
-2.342360570687485e-05
-5.098078889143272e-05
-6.751509880216745e-05
-6.751509880216745e-05
-7.027081712062322e-05
-7.85379720759906e-05
-9.231656366826955e-05
-9.231656366826955e-05
-8.956084534981374e-05
-8.956084534981374e-05
-9.78280003051811e-05
-0.00010885087357900426
-0.0001171180285343716
-0.0001171180285343716
-0.0001198737468528274
-0.0001336523384451063
-0.00015569808499275262
-0.00014743093003738526
-4.5469352254521147e-05
0.0001832552681773092
0.0005414986495765614
0.0009934364538033101
0.0014205727931639574
0.0016906331883726243
0.0017154346532387268
0.0014040384832532226
0.0008749405661097116
0.00018876670481422076
-0.0005194529030289164
-0.0007013303120469984
-0.0005635443961242091
-0.00045055994506752175
-0.00037339983215075977
-0.0002989954375524536
-0.00022734676127260308
-0.00018601098649576628
-0.00016947667658503157
-0.0001612095216296642
-0.00015569808499275262
-0.00014191949340047367
-0.00012814090180819475
-0.0001226294651712832
-0.0001226294651712832
-0.0001198737468528274
-0.00011160659189746003
-0.00010058371862363688
-9.231656366826955e-05
-9.507228198672531e-05
-9.231656366826955e-05
-8.404940871290214e-05
-7.027081712062322e-05
-6.475938048371164e-05
-6.475938048371164e-05
-6.475938048371164e-05
-5.6492225528344285e-05
-3.995791561760957e-05
-3.169076066224221e-05
-3.169076066224221e-05
-3.169076066224221e-05
-2.066788738841907e-05
-9.64501411459592e-06
4.133577477683014e-06
6.8892957961388014e-06
1.5156450751506162e-05
3.720219729915245e-05
5.373650720988717e-05
5.649222552834297e-05
6.475938048371032e-05
7.853797207598924e-05
9.782800030517979e-05
0.00011436231021591448
0.00012814090180819342
0.0001253851834897376
0.00011711802853437029
0.00011987374685282605
0.0001253851834897376
0.00011987374685282605
0.00010333943694209132
9.507228198672396e-05
8.956084534981241e-05
8.956084534981241e-05
8.129369039444505e-05
5.9247943846798756e-05
3.169076066224089e-05
1.2400732433050376e-05
-1.377859159228559e-06
-2.066788738841907e-05
-4.8225070572976926e-05
-7.302653543907902e-05
-9.231656366826955e-05
-9.231656366826955e-05
-9.78280003051811e-05
-0.00011160659189746003
-0.00012538518348973897
-0.00013089662012665053
-0.00012814090180819475
-0.0001226294651712832
-0.0001198737468528274
-0.0001226294651712832
-0.0001226294651712832
-0.00010333943694209268
-8.129369039444639e-05
-6.475938048371164e-05
-5.098078889143272e-05
-3.4446478980697995e-05
-2.066788738841907e-05
-4.133577477684346e-06
6.8892957961388014e-06
1.5156450751506162e-05
3.169076066224089e-05
5.649222552834297e-05
8.404940871290084e-05
9.782800030517979e-05
9.23165636682682e-05
8.129369039444505e-05
7.30265354390777e-05
7.02708171206219e-05
7.02708171206219e-05
6.200366216525454e-05
4.546935225451981e-05
2.066788738841773e-05
9.64501411459459e-06
-1.377859159228559e-06
-2.342360570687485e-05
-5.098078889143272e-05
-7.027081712062322e-05
-7.302653543907902e-05
-7.027081712062322e-05
-7.57822537575348e-05
-9.78280003051811e-05
-9.78280003051811e-05
-9.507228198672531e-05
-9.507228198672531e-05
-0.00010333943694209268
-0.0001171180285343716
-0.00012538518348973897
-0.00012814090180819475
-0.0001364080567635621
-0.0001584538033112084
-0.000150186648355841
-2.6179324025330647e-05
0.00024112535286488067
0.0006489716639963371
0.001128466651407644
0.0015500915541313794
0.0017925947661554887
0.0017870833295185766
0.0014591528496223384
0.0009135206225680924
0.00017498811322194178
-0.0005442543678950186
-0.0006985745937285427
-0.0005580329594872974
-0.00044504850843061025
-0.000370644113832304
-0.00030175115587090934
-0.0002466367895017936
-0.00020254529640650095
-0.00018325526817731047
-0.0001777438315403989
-0.00017498811322194308
-0.00016947667658503157
-0.00015294236667429682
-0.0001391637750820179
-0.0001364080567635621
-0.0001336523384451063
-0.00012814090180819475
-0.00011436231021591582
-0.00010333943694209268
-0.00010058371862363688
-0.00010333943694209268
-0.00010058371862363688
-9.231656366826955e-05
-7.57822537575348e-05
-7.027081712062322e-05
-7.57822537575348e-05
-7.57822537575348e-05
-6.200366216525588e-05
-4.8225070572976926e-05
-4.5469352254521147e-05
-4.5469352254521147e-05
-4.2713633936065354e-05
-3.4446478980697995e-05
-2.066788738841907e-05
-9.64501411459592e-06
-9.64501411459592e-06
-6.889295796140132e-06
1.3778591592272275e-06
2.3423605706873515e-05
4.546935225451981e-05
5.373650720988717e-05
5.649222552834297e-05
7.02708171206219e-05
8.956084534981241e-05
0.00010609515526054714
0.00010885087357900291
0.00010058371862363556
9.507228198672396e-05
8.956084534981241e-05
7.853797207598924e-05
6.200366216525454e-05
5.098078889143139e-05
4.82250705729756e-05
5.098078889143139e-05
3.9957915617608246e-05
1.7912169069961946e-05
-9.64501411459592e-06
-3.169076066224221e-05
-4.5469352254521147e-05
-6.475938048371164e-05
-8.956084534981374e-05
-0.00010885087357900426
-0.0001226294651712832
-0.00012538518348973897
-0.00013089662012665053
-0.00014743093003738526
-0.0001584538033112084
-0.00016396523994811996
-0.0001584538033112084
-0.000150186648355841
-0.000150186648355841
-0.000150186648355841
-0.0001391637750820179
-0.00011436231021591582
-8.680512703135793e-05
-7.027081712062322e-05
-5.6492225528344285e-05
-4.2713633936065354e-05
-2.8935042343786426e-05
-9.64501411459592e-06
9.64501411459459e-06
2.8935042343785094e-05
4.546935225451981e-05
6.475938048371032e-05
8.404940871290084e-05
8.956084534981241e-05
7.853797207598924e-05
7.02708171206219e-05
5.9247943846798756e-05
5.9247943846798756e-05
5.649222552834297e-05
4.271363393606403e-05
1.5156450751506162e-05
-1.377859159228559e-06
-1.240073243305171e-05
-2.342360570687485e-05
-4.5469352254521147e-05
-7.027081712062322e-05
-8.680512703135793e-05
-8.680512703135793e-05
-8.404940871290214e-05
-8.956084534981374e-05
-0.00010058371862363688
-0.00011160659189746003
-0.00010885087357900426
-0.00010333943694209268
-0.00010333943694209268
-0.0001171180285343716
-0.0001336523384451063
-0.00014467521171892948
-0.000150186648355841
-0.00015569808499275262
-0.0001336523384451063
-9.64501411459592e-06
0.00026041538109407124
0.0006847960021362622
0.001630007385366597
0.0018945563439383528
0.0019166020904859992
0.0016134730754558623
0.0010788637216754397
0.00033206405737392166
-0.00046709425497825643
-0.0006958188754100868
-0.0005635443961242091
-0.000447804226749066
-0.0003651326771953924
-0.0003045068741893651
-0.00025765966277561676
-0.0002190796063172357
-0.00018876670481422206
-0.00018049954985885472
-0.00018049954985885472
-0.00018049954985885472
-0.00016947667658503157
-0.00015294236667429682
-0.00014191949340047367
-0.0001391637750820179
-0.00014467521171892948
-0.0001391637750820179
-0.00012538518348973897
-0.00011160659189746003
-0.00011160659189746003
-0.00011160659189746003
-0.00010609515526054846
-9.507228198672531e-05
-8.680512703135793e-05
-8.129369039444639e-05
-8.404940871290214e-05
-8.129369039444639e-05
-7.027081712062322e-05
-5.9247943846800084e-05
-5.098078889143272e-05
-5.098078889143272e-05
-5.098078889143272e-05
-4.2713633936065354e-05
-2.8935042343786426e-05
-1.7912169069963278e-05
-1.5156450751507488e-05
-6.889295796140132e-06
4.133577477683014e-06
2.6179324025329308e-05
4.546935225451981e-05
5.649222552834297e-05
6.475938048371032e-05
8.129369039444505e-05
0.00010058371862363556
0.00010885087357900291
0.00010333943694209132
8.956084534981241e-05
7.853797207598924e-05
7.30265354390777e-05
6.751509880216611e-05
5.373650720988717e-05
3.444647898069667e-05
2.3423605706873515e-05
2.066788738841773e-05
2.3423605706873515e-05
4.133577477683014e-06
-1.7912169069963278e-05
-3.720219729915378e-05
-4.8225070572976926e-05
-5.3736507209888505e-05
-7.027081712062322e-05
-0.00011160659189746003
-0.0001226294651712832
-0.00012538518348973897
-0.0001336523384451063
-0.00015294236667429682
-0.00016396523994811996
-0.00016947667658503157
-0.0001612095216296642
-0.00015294236667429682
-0.00015294236667429682
-0.00015569808499275262
-0.00014743093003738526
-0.0001226294651712832
-9.231656366826955e-05
-6.751509880216745e-05
-5.9247943846800084e-05
-5.098078889143272e-05
-3.4446478980697995e-05
-6.889295796140132e-06
2.3423605706873515e-05
4.546935225451981e-05
6.200366216525454e-05
7.578225375753347e-05
8.68051270313566e-05
8.68051270313566e-05
7.30265354390777e-05
6.200366216525454e-05
5.649222552834297e-05
6.200366216525454e-05
5.373650720988717e-05
2.8935042343785094e-05
1.3778591592272275e-06
-1.240073243305171e-05
-2.342360570687485e-05
-3.995791561760957e-05
-5.9247943846800084e-05
-7.85379720759906e-05
-8.680512703135793e-05
-8.404940871290214e-05
-8.129369039444639e-05
-9.231656366826955e-05
-0.00010333943694209268
-0.00011160659189746003
-0.00010609515526054846
-0.00010058371862363688
-0.00010885087357900426
-0.00012814090180819475
-0.00014467521171892948
-0.00015569808499275262
-0.0001612095216296642
-0.0001198737468528274
3.444647898069667e-05
0.0003348197756923775
0.0007895132982375822
0.0013048326237888143
0.0017457475547417404
0.001993762203402761
0.001968960738536659
0.001607961638818951
0.0010430393835355147
0.00025214822613870384
-0.0005084300297550932
-0.0006737731288624405
-0.00054976580453193
-0.00043953707179369863
-0.00035410980392156926
-0.00028797256427863044
-0.00024939250782024937
-0.00019703385976958942
-0.00018601098649576628
-0.0001777438315403989
-0.00017498811322194308
-0.00017223239490348733
-0.00016396523994811996
-0.00014743093003738526
-0.0001391637750820179
-0.00014191949340047367
-0.00014191949340047367
-0.0001336523384451063
-0.0001198737468528274
-0.00010885087357900426
-0.00011160659189746003
-0.00011160659189746003
-0.00010609515526054846
-8.956084534981374e-05
-8.404940871290214e-05
-8.129369039444639e-05
-8.404940871290214e-05
-8.129369039444639e-05
-7.027081712062322e-05
-5.6492225528344285e-05
-5.3736507209888505e-05
-5.3736507209888505e-05
-5.098078889143272e-05
-3.995791561760957e-05
-2.6179324025330647e-05
-1.7912169069963278e-05
-1.5156450751507488e-05
-4.133577477684346e-06
1.5156450751506162e-05
3.444647898069667e-05
5.373650720988717e-05
6.751509880216611e-05
7.853797207598924e-05
9.23165636682682e-05
0.00010885087357900291
0.00011160659189745871
0.00010058371862363556
8.404940871290084e-05
7.578225375753347e-05
7.30265354390777e-05
6.200366216525454e-05
4.546935225451981e-05
2.6179324025329308e-05
1.2400732433050376e-05
9.64501411459459e-06
6.8892957961388014e-06
-6.889295796140132e-06
-2.8935042343786426e-05
-4.5469352254521147e-05
-5.3736507209888505e-05
-5.9247943846800084e-05
-7.027081712062322e-05
-9.231656366826955e-05
-0.00010885087357900426
-0.00011436231021591582
-0.0001171180285343716
-0.00012814090180819475
-0.00014467521171892948
-0.0001584538033112084
-0.00016396523994811996
-0.00015569808499275262
-0.00015294236667429682
-0.00014743093003738526
-0.0001391637750820179
-0.00012814090180819475
-7.302653543907902e-05
-5.9247943846800084e-05
-5.6492225528344285e-05
-4.2713633936065354e-05
-1.240073243305171e-05
2.6179324025329308e-05
5.098078889143139e-05
6.751509880216611e-05
7.02708171206219e-05
7.578225375753347e-05
8.404940871290084e-05
8.129369039444505e-05
7.02708171206219e-05
5.649222552834297e-05
5.649222552834297e-05
5.373650720988717e-05
3.720219729915245e-05
9.64501411459459e-06
-1.240073243305171e-05
-2.6179324025330647e-05
-3.995791561760957e-05
-5.098078889143272e-05
-6.751509880216745e-05
-8.129369039444639e-05
-8.680512703135793e-05
-8.404940871290214e-05
-8.129369039444639e-05
-8.956084534981374e-05
-0.00010058371862363688
-0.00010609515526054846
-0.00010333943694209268
-0.00010609515526054846
-0.0001171180285343716
-0.0001364080567635621
-0.00014743093003738526
-0.00014467521171892948
-7.302653543907902e-05
0.00011987374685282605
0.0004588271000228878
0.0009410778057526506
0.0014453742580300595
0.0018587320057984274
0.0020626551613641565
0.0019662050202182034
0.0015390686808575565
0.0009245434958419158
9.23165636682682e-05
-0.0005745672693980323
-0.0006324373540856038
-0.0005111857480735491
-0.00041749132524605234
-0.0003320640573739229
-0.0002686825360494398
-0.00022459104295414727
-0.00020254529640650095
-0.00019152242313267784
-0.0001777438315403989
-0.00016672095826657574
-0.00016396523994811996
-0.00016396523994811996
-0.0001584538033112084
-0.00014191949340047367
-0.00012814090180819475
-0.0001171180285343716
-0.0001198737468528274
-0.0001226294651712832
-0.00011160659189746003
-9.78280003051811e-05
-8.956084534981374e-05
-9.231656366826955e-05
-8.404940871290214e-05
-7.027081712062322e-05
-6.200366216525588e-05
-6.200366216525588e-05
-6.475938048371164e-05
-6.200366216525588e-05
-4.5469352254521147e-05
-3.4446478980697995e-05
-2.8935042343786426e-05
-2.8935042343786426e-05
-2.342360570687485e-05
-1.240073243305171e-05
4.133577477683014e-06
1.7912169069961946e-05
2.066788738841773e-05
3.444647898069667e-05
5.649222552834297e-05
8.129369039444505e-05
9.782800030517979e-05
0.00010609515526054714
0.00011160659189745871
0.00011987374685282605
0.00013089662012664922
0.00012814090180819342
0.00010885087357900291
8.956084534981241e-05
7.853797207598924e-05
7.30265354390777e-05
6.200366216525454e-05
4.546935225451981e-05
2.3423605706873515e-05
9.64501411459459e-06
4.133577477683014e-06
-4.133577477684346e-06
-2.066788738841907e-05
-4.5469352254521147e-05
-6.200366216525588e-05
-6.751509880216745e-05
-7.027081712062322e-05
-8.129369039444639e-05
-9.78280003051811e-05
-0.00011436231021591582
-0.0001198737468528274
-0.0001226294651712832
-0.0001336523384451063
-0.000150186648355841
-0.0001584538033112084
-0.0001584538033112084
-0.00014743093003738526
-0.0001364080567635621
-0.00013089662012665053
-0.0001198737468528274
-9.507228198672531e-05
-6.475938048371164e-05
-4.8225070572976926e-05
-4.2713633936065354e-05
-3.4446478980697995e-05
-9.64501411459592e-06
2.3423605706873515e-05
5.9247943846798756e-05
7.30265354390777e-05
6.751509880216611e-05
6.751509880216611e-05
8.129369039444505e-05
8.68051270313566e-05
7.578225375753347e-05
5.9247943846798756e-05
3.9957915617608246e-05
3.169076066224089e-05
1.5156450751506162e-05
-9.64501411459592e-06
-3.4446478980697995e-05
-5.098078889143272e-05
-5.6492225528344285e-05
-5.9247943846800084e-05
-7.302653543907902e-05
-8.404940871290214e-05
-8.680512703135793e-05
-8.404940871290214e-05
-8.680512703135793e-05
-9.507228198672531e-05
-0.00010609515526054846
-0.00011436231021591582
-0.00011436231021591582
-0.0001171180285343716
-0.00012538518348973897
-0.0001336523384451063
-0.00011436231021591582
-1.377859159228559e-06
0.00023285819790951333
0.0005938572976272215
0.0010292607919432355
0.0014343513847562366
0.0017237018081940941
0.0018284191042954136
0.001660320286869611
0.001224916792553597
0.0005911015793087656
-0.00024388107118333775
-0.0006847960021362637
-0.0006131473258564133
-0.00048638428320744705
-0.0003982012970168618
-0.00032379690241855563
-0.0002549039444571609
-0.00020530101472495681
-0.00018325526817731047
-0.0001777438315403989
-0.00017223239490348733
-0.0001584538033112084
-0.00014743093003738526
-0.00014191949340047367
-0.00014191949340047367
-0.0001364080567635621
-0.00012538518348973897
-0.00011160659189746003
-0.00010609515526054846
-0.00010609515526054846
-0.00010609515526054846
-9.507228198672531e-05
-8.129369039444639e-05
-7.302653543907902e-05
-7.57822537575348e-05
-7.57822537575348e-05
-7.027081712062322e-05
-5.6492225528344285e-05
-4.8225070572976926e-05
-4.8225070572976926e-05
-5.3736507209888505e-05
-4.5469352254521147e-05
-3.169076066224221e-05
-2.066788738841907e-05
-1.7912169069963278e-05
-9.64501411459592e-06
-4.133577477684346e-06
3.444647898069667e-05
4.271363393606403e-05
5.098078889143139e-05
6.751509880216611e-05
9.23165636682682e-05
0.00011711802853437029
0.00013089662012664922
0.00013365233844510492
0.00013365233844510492
0.00013640805676356078
0.00013916377508201656
0.00012814090180819342
0.00010609515526054714
8.68051270313566e-05
7.578225375753347e-05
7.02708171206219e-05
5.649222552834297e-05
3.169076066224089e-05
6.8892957961388014e-06
-9.64501411459592e-06
-1.5156450751507488e-05
-2.6179324025330647e-05
-4.2713633936065354e-05
-6.200366216525588e-05
-7.302653543907902e-05
-7.302653543907902e-05
-7.302653543907902e-05
-8.129369039444639e-05
-9.78280003051811e-05
-0.00011160659189746003
-0.00011436231021591582
-0.00011436231021591582
-0.0001226294651712832
-0.0001364080567635621
-0.00014743093003738526
-0.00014467521171892948
-0.0001336523384451063
-0.0001198737468528274
-0.00010885087357900426
-9.507228198672531e-05
-8.129369039444639e-05
-6.200366216525588e-05
-4.8225070572976926e-05
-3.720219729915378e-05
-2.066788738841907e-05
6.8892957961388014e-06
3.9957915617608246e-05
5.649222552834297e-05
5.098078889143139e-05
4.82250705729756e-05
5.098078889143139e-05
5.649222552834297e-05
5.649222552834297e-05
5.373650720988717e-05
4.546935225451981e-05
2.6179324025329308e-05
1.5156450751506162e-05
6.8892957961388014e-06
-1.240073243305171e-05
-3.995791561760957e-05
-6.200366216525588e-05
-7.027081712062322e-05
-7.027081712062322e-05
-7.302653543907902e-05
-8.404940871290214e-05
-9.507228198672531e-05
-9.507228198672531e-05
-8.956084534981374e-05
-0.00010058371862363688
-0.00010885087357900426
-0.0001171180285343716
-0.0001171180285343716
-0.00011436231021591582
-0.00010609515526054846
-6.475938048371164e-05
5.373650720988717e-05
0.0003072625925078196
0.000679284565499351
0.0010761080033569843
0.0014040384832532226
0.001602450202182039
0.0016327631036850527
0.0014178170748455018
0.0009576121156633854
0.0002879725642786291
-0.0004560713817044334
-0.0006903074387731753
-0.0005718115510795765
-0.000447804226749066
-0.00036788839551384826
-0.00030175115587090934
-0.00024388107118333775
-0.0001997895780880452
-0.00017498811322194308
-0.00016947667658503157
-0.00016947667658503157
-0.00016672095826657574
-0.000150186648355841
-0.0001364080567635621
-0.00013089662012665053
-0.0001336523384451063
-0.00012814090180819475
-0.0001171180285343716
-0.00010885087357900426
-0.00010885087357900426
-0.00010885087357900426
-0.00010609515526054846
-9.507228198672531e-05
-8.404940871290214e-05
-8.129369039444639e-05
-7.85379720759906e-05
-8.129369039444639e-05
-7.302653543907902e-05
-5.9247943846800084e-05
-5.6492225528344285e-05
-5.9247943846800084e-05
-5.6492225528344285e-05
-5.098078889143272e-05
-3.720219729915378e-05
-2.6179324025330647e-05
-2.342360570687485e-05
-2.066788738841907e-05
-9.64501411459592e-06
6.8892957961388014e-06
2.6179324025329308e-05
3.720219729915245e-05
4.546935225451981e-05
6.200366216525454e-05
8.404940871290084e-05
0.00010058371862363556
0.00010333943694209132
9.782800030517979e-05
8.68051270313566e-05
8.68051270313566e-05
8.404940871290084e-05
7.578225375753347e-05
3.720219729915245e-05
2.6179324025329308e-05
1.7912169069961946e-05
9.64501411459459e-06
-9.64501411459592e-06
-3.4446478980697995e-05
-4.5469352254521147e-05
-5.098078889143272e-05
-6.200366216525588e-05
-7.57822537575348e-05
-8.956084534981374e-05
-9.78280003051811e-05
-9.231656366826955e-05
-9.507228198672531e-05
-0.00010609515526054846
-0.0001198737468528274
-0.00012814090180819475
-0.0001336523384451063
-0.00013089662012665053
-0.00013089662012665053
-0.00014191949340047367
-0.00014191949340047367
-0.00013089662012665053
-0.00011436231021591582
-9.78280003051811e-05
-8.680512703135793e-05
-7.85379720759906e-05
-6.751509880216745e-05
-5.098078889143272e-05
-3.169076066224221e-05
-1.5156450751507488e-05
-1.377859159228559e-06
2.6179324025329308e-05
4.271363393606403e-05
4.82250705729756e-05
4.82250705729756e-05
4.546935225451981e-05
4.271363393606403e-05
4.82250705729756e-05
4.82250705729756e-05
4.271363393606403e-05
2.066788738841773e-05
-1.377859159228559e-06
-4.133577477684346e-06
-1.240073243305171e-05
-3.4446478980697995e-05
-6.200366216525588e-05
-7.57822537575348e-05
-7.85379720759906e-05
-7.57822537575348e-05
-8.129369039444639e-05
-9.231656366826955e-05
-0.00010333943694209268
-0.00010058371862363688
-9.507228198672531e-05
-9.78280003051811e-05
-0.00011160659189746003
-0.0001226294651712832
-0.00013089662012665053
-0.00012814090180819475
-0.0001226294651712832
-9.231656366826955e-05
3.720219729915245e-05
0.00031001831082627527
0.0007040860303654528
0.0011312223697260999
0.0014867100328068963
0.001687877470054169
0.0016851217517357133
0.0009190320592050041
0.00021632388799877858
-0.00048638428320744705
-0.0006572388189517057
-0.0005332314946211955
-0.00041749132524605234
-0.0003320640573739229
-0.00027694969100480727
-0.00023285819790951464
-0.00019427814145113364
-0.00016672095826657574
-0.00015569808499275262
-0.0001584538033112084
-0.0001584538033112084
-0.000150186648355841
-0.0001364080567635621
-0.00012538518348973897
-0.0001226294651712832
-0.0001226294651712832
-0.0001198737468528274
-0.00010333943694209268
-9.231656366826955e-05
-9.231656366826955e-05
-9.507228198672531e-05
-9.507228198672531e-05
-8.680512703135793e-05
-7.302653543907902e-05
-6.751509880216745e-05
-7.302653543907902e-05
-6.751509880216745e-05
-5.6492225528344285e-05
-4.5469352254521147e-05
-3.995791561760957e-05
-4.5469352254521147e-05
-4.5469352254521147e-05
-3.720219729915378e-05
-2.342360570687485e-05
-1.5156450751507488e-05
-1.5156450751507488e-05
-1.5156450751507488e-05
-6.889295796140132e-06
1.2400732433050376e-05
2.6179324025329308e-05
3.720219729915245e-05
3.9957915617608246e-05
4.82250705729756e-05
5.9247943846798756e-05
7.02708171206219e-05
6.475938048371032e-05
5.098078889143139e-05
3.9957915617608246e-05
3.720219729915245e-05
3.169076066224089e-05
1.7912169069961946e-05
1.3778591592272275e-06
-1.240073243305171e-05
-1.5156450751507488e-05
-1.5156450751507488e-05
-2.6179324025330647e-05
-4.2713633936065354e-05
-5.6492225528344285e-05
-6.475938048371164e-05
-6.751509880216745e-05
-7.027081712062322e-05
-8.404940871290214e-05
-9.78280003051811e-05
-0.00010333943694209268
-0.00010333943694209268
-0.0001171180285343716
-0.00013089662012665053
-0.0001364080567635621
-0.00013089662012665053
-0.00012814090180819475
-0.0001336523384451063
-0.0001364080567635621
-0.00012538518348973897
-0.00010609515526054846
-8.404940871290214e-05
-6.475938048371164e-05
-5.9247943846800084e-05
-5.3736507209888505e-05
-3.995791561760957e-05
-1.5156450751507488e-05
9.64501411459459e-06
2.8935042343785094e-05
4.82250705729756e-05
5.9247943846798756e-05
7.02708171206219e-05
7.30265354390777e-05
6.475938048371032e-05
4.82250705729756e-05
4.82250705729756e-05
5.098078889143139e-05
4.82250705729756e-05
2.6179324025329308e-05
6.8892957961388014e-06
-6.889295796140132e-06
-1.7912169069963278e-05
-3.4446478980697995e-05
-5.3736507209888505e-05
-7.027081712062322e-05
-7.85379720759906e-05
-7.85379720759906e-05
-7.57822537575348e-05
-8.404940871290214e-05
-9.507228198672531e-05
-0.00010058371862363688
-9.78280003051811e-05
-9.78280003051811e-05
-0.00010333943694209268
-0.0001198737468528274
-0.0001336523384451063
-0.00014191949340047367
-0.0001391637750820179
-0.00010058371862363688
3.9957915617608246e-05
0.00031001831082627527
0.000717864621957732
0.0011835810177767598
0.0015528472724498353
0.0017154346532387268
0.0016052059205004952
0.0011946038910505827
0.0006407045090409697
-0.00010885087357900426
-0.00065448310063325
-0.0006655059739070732
-0.0005304757763027395
-0.0004257584802014197
-0.0003348197756923787
-0.0002686825360494398
-0.00022734676127260308
-0.00019703385976958942
-0.0001777438315403989
-0.0001612095216296642
-0.000150186648355841
-0.00014743093003738526
-0.00014191949340047367
-0.00012538518348973897
-0.0001171180285343716
-0.00011436231021591582
-0.0001171180285343716
-0.00010885087357900426
-9.507228198672531e-05
-8.129369039444639e-05
-8.129369039444639e-05
-8.129369039444639e-05
-8.129369039444639e-05
-7.027081712062322e-05
-5.6492225528344285e-05
-5.3736507209888505e-05
-5.6492225528344285e-05
-5.3736507209888505e-05
-4.2713633936065354e-05
-2.6179324025330647e-05
-2.342360570687485e-05
-2.6179324025330647e-05
-2.342360570687485e-05
-9.64501411459592e-06
6.8892957961388014e-06
1.5156450751506162e-05
1.7912169069961946e-05
2.3423605706873515e-05
3.720219729915245e-05
5.9247943846798756e-05
7.853797207598924e-05
8.956084534981241e-05
9.23165636682682e-05
0.00010058371862363556
0.00011436231021591448
0.00011711802853437029
0.00010333943694209132
9.23165636682682e-05
8.404940871290084e-05
8.129369039444505e-05
8.404940871290084e-05
7.578225375753347e-05
5.9247943846798756e-05
4.546935225451981e-05
3.720219729915245e-05
2.6179324025329308e-05
4.133577477683014e-06
-2.8935042343786426e-05
-5.3736507209888505e-05
-6.751509880216745e-05
-7.57822537575348e-05
-8.680512703135793e-05
-0.00010333943694209268
-0.0001226294651712832
-0.0001336523384451063
-0.00013089662012665053
-0.00012814090180819475
-0.0001336523384451063
-0.00014467521171892948
-0.00014467521171892948
-0.00013089662012665053
-0.0001198737468528274
-0.00011160659189746003
-0.00010333943694209268
-8.680512703135793e-05
-5.9247943846800084e-05
-3.169076066224221e-05
-1.7912169069963278e-05
-2.066788738841907e-05
1.7912169069961946e-05
4.82250705729756e-05
6.751509880216611e-05
7.578225375753347e-05
7.02708171206219e-05
7.30265354390777e-05
7.853797207598924e-05
7.02708171206219e-05
5.649222552834297e-05
3.9957915617608246e-05
3.720219729915245e-05
2.8935042343785094e-05
1.5156450751506162e-05
-6.889295796140132e-06
-3.169076066224221e-05
-5.098078889143272e-05
-5.9247943846800084e-05
-6.751509880216745e-05
-8.129369039444639e-05
-9.231656366826955e-05
-9.78280003051811e-05
-9.507228198672531e-05
-9.231656366826955e-05
-9.507228198672531e-05
-0.00010885087357900426
-0.00011436231021591582
-0.00011436231021591582
-0.00010885087357900426
-0.0001226294651712832
-0.00014467521171892948
-0.00016947667658503157
-0.00017223239490348733
-7.57822537575348e-05
0.00014467521171892812
0.0004863842832074457
0.0009438335240711064
0.001401282764934767
0.0017071674982833593
0.0017788161745632097
0.0015225343709468217
0.0010099707637140451
0.0003430869306477448
-0.0004202470435645082
-0.0007123531853208215
-0.0006076358892195017
-0.0004946514381628143
-0.00040922417029068495
-0.0003210411841000998
-0.0002521482261387052
-0.00021632388799877996
-0.00020254529640650095
-0.00019703385976958942
-0.0001777438315403989
-0.0001612095216296642
-0.00015294236667429682
-0.00015294236667429682
-0.000150186648355841
-0.0001391637750820179
-0.0001226294651712832
-0.00011436231021591582
-0.0001171180285343716
-0.0001198737468528274
-0.00011160659189746003
-9.78280003051811e-05
-8.680512703135793e-05
-8.129369039444639e-05
-8.404940871290214e-05
-7.85379720759906e-05
-7.027081712062322e-05
-6.200366216525588e-05
-5.9247943846800084e-05
-5.6492225528344285e-05
-3.995791561760957e-05
-2.6179324025330647e-05
-2.066788738841907e-05
-2.066788738841907e-05
-1.5156450751507488e-05
1.3778591592272275e-06
1.7912169069961946e-05
2.8935042343785094e-05
3.720219729915245e-05
4.546935225451981e-05
6.475938048371032e-05
8.956084534981241e-05
0.00010333943694209132
0.00010333943694209132
0.00010333943694209132
0.00010609515526054714
0.00011160659189745871
0.00010609515526054714
8.956084534981241e-05
7.578225375753347e-05
6.751509880216611e-05
6.475938048371032e-05
5.9247943846798756e-05
4.546935225451981e-05
2.8935042343785094e-05
9.64501411459459e-06
-6.889295796140132e-06
-2.6179324025330647e-05
-5.098078889143272e-05
-8.129369039444639e-05
-0.00010058371862363688
-0.00011436231021591582
-0.0001226294651712832
-0.0001364080567635621
-0.00015294236667429682
-0.0001612095216296642
-0.0001612095216296642
-0.00015569808499275262
-0.0001584538033112084
-0.00016396523994811996
-0.00016672095826657574
-0.0001584538033112084
-0.0001364080567635621
-0.00011436231021591582
-0.00010333943694209268
-8.956084534981374e-05
-7.027081712062322e-05
-4.5469352254521147e-05
-3.169076066224221e-05
-2.6179324025330647e-05
-1.5156450751507488e-05
6.8892957961388014e-06
3.720219729915245e-05
6.475938048371032e-05
7.02708171206219e-05
5.9247943846798756e-05
5.098078889143139e-05
5.373650720988717e-05
5.373650720988717e-05
4.546935225451981e-05
2.8935042343785094e-05
1.2400732433050376e-05
-4.133577477684346e-06
-1.240073243305171e-05
-2.6179324025330647e-05
-7.85379720759906e-05
-9.507228198672531e-05
-0.00010058371862363688
-0.00010333943694209268
-0.00011436231021591582
-0.00012538518348973897
-0.00012814090180819475
-0.0001226294651712832
-0.0001226294651712832
-0.00012814090180819475
-0.0001391637750820179
-0.00014467521171892948
-0.00014467521171892948
-0.00015294236667429682
-0.00016672095826657574
-0.00018601098649576628
-0.00015294236667429682
4.133577477683014e-06
0.0003072625925078196
0.0007426660868238338
0.001224916792553597
0.0016355188220035087
0.0018614877241168832
0.0018284191042954136
0.00146466428625925
0.0008887191577019906
0.00010885087357900291
-0.0005855901426718552
-0.0006847960021362637
-0.00054976580453193
-0.0004560713817044334
-0.0003871784237430386
-0.00031828546578164407
-0.00025765966277561676
-0.00021632388799877996
-0.00020254529640650095
-0.00020254529640650095
-0.00019703385976958942
-0.00018325526817731047
-0.00017223239490348733
-0.00016672095826657574
-0.00016396523994811996
-0.0001612095216296642
-0.000150186648355841
-0.0001364080567635621
-0.00012814090180819475
-0.00013089662012665053
-0.00013089662012665053
-0.0001226294651712832
-0.00010885087357900426
-0.00010333943694209268
-0.00010609515526054846
-0.00010885087357900426
-0.00010609515526054846
-9.231656366826955e-05
-8.129369039444639e-05
-8.129369039444639e-05
-8.404940871290214e-05
-7.85379720759906e-05
-5.9247943846800084e-05
-4.5469352254521147e-05
-3.995791561760957e-05
-4.2713633936065354e-05
-3.720219729915378e-05
-1.7912169069963278e-05
1.3778591592272275e-06
1.5156450751506162e-05
2.066788738841773e-05
5.373650720988717e-05
7.30265354390777e-05
8.129369039444505e-05
7.578225375753347e-05
7.02708171206219e-05
7.02708171206219e-05
6.751509880216611e-05
5.649222552834297e-05
4.271363393606403e-05
2.3423605706873515e-05
1.2400732433050376e-05
1.2400732433050376e-05
1.3778591592272275e-06
-9.64501411459592e-06
-2.8935042343786426e-05
-4.2713633936065354e-05
-5.098078889143272e-05
-6.475938048371164e-05
-8.680512703135793e-05
-0.00011436231021591582
-0.00012814090180819475
-0.0001364080567635621
-0.00014191949340047367
-0.00015569808499275262
-0.00017498811322194308
-0.00018325526817731047
-0.00018601098649576628
-0.00018049954985885472
-0.00018049954985885472
-0.00018601098649576628
-0.00019152242313267784
-0.00017498811322194308
-0.00014743093003738526
-0.0001226294651712832
-0.00010333943694209268
-8.956084534981374e-05
-7.57822537575348e-05
-5.6492225528344285e-05
-3.720219729915378e-05
-1.5156450751507488e-05
4.133577477683014e-06
2.8935042343785094e-05
5.649222552834297e-05
6.475938048371032e-05
6.200366216525454e-05
5.649222552834297e-05
4.546935225451981e-05
4.546935225451981e-05
4.546935225451981e-05
3.9957915617608246e-05
2.066788738841773e-05
-4.133577477684346e-06
-1.5156450751507488e-05
-2.342360570687485e-05
-4.2713633936065354e-05
-7.302653543907902e-05
-9.231656366826955e-05
-0.00010058371862363688
-9.78280003051811e-05
-0.00010058371862363688
-0.00010885087357900426
-0.0001226294651712832
-0.00012538518348973897
-0.0001226294651712832
-0.0001198737468528274
-0.00012814090180819475
-0.00014467521171892948
-0.0001584538033112084
-0.00017498811322194308
-0.00017498811322194308
-0.00010058371862363688
0.00011160659189745871
0.0004781171282520784
0.0009686349889372082
0.0014619085679407943
0.0018173962310215907
0.0019634493018997477
0.0018146405127031347
0.0013571912718394743
0.0007206203402761877
-0.0001364080567635621
-0.0006765288471808962
-0.0006572388189517057
-0.0005277200579842838
-0.00043402563515678713
-0.00036237695887693665
-0.0003100183108262768
-0.00027143825436789566
-0.00023561391622797047
-0.00021632388799877996
-0.00021356816968032413
-0.00021632388799877996
-0.0002080567330434125
-0.00019152242313267784
-0.00018049954985885472
-0.00018049954985885472
-0.00018049954985885472
-0.0001777438315403989
-0.00016947667658503157
-0.00015294236667429682
-0.00014743093003738526
-0.000150186648355841
-0.000150186648355841
-0.0001391637750820179
-0.00012538518348973897
-0.00011160659189746003
-0.00011436231021591582
-0.0001171180285343716
-0.00011160659189746003
-9.78280003051811e-05
-9.231656366826955e-05
-9.231656366826955e-05
-9.231656366826955e-05
-8.680512703135793e-05
-7.302653543907902e-05
-5.9247943846800084e-05
-5.9247943846800084e-05
-5.6492225528344285e-05
-4.5469352254521147e-05
-2.6179324025330647e-05
-4.133577477684346e-06
9.64501411459459e-06
2.066788738841773e-05
3.444647898069667e-05
5.098078889143139e-05
7.02708171206219e-05
7.02708171206219e-05
6.200366216525454e-05
4.82250705729756e-05
4.271363393606403e-05
3.720219729915245e-05
2.6179324025329308e-05
9.64501411459459e-06
-4.133577477684346e-06
-1.5156450751507488e-05
-2.066788738841907e-05
-5.098078889143272e-05
-7.027081712062322e-05
-8.404940871290214e-05
-8.956084534981374e-05
-9.78280003051811e-05
-0.0001171180285343716
-0.0001364080567635621
-0.000150186648355841
-0.00015294236667429682
-0.00015569808499275262
-0.00016947667658503157
-0.00018601098649576628
-0.0001997895780880452
-0.0001997895780880452
-0.00019427814145113364
-0.00019427814145113364
-0.0001997895780880452
-0.00019152242313267784
-0.00016947667658503157
-0.00014467521171892948
-0.0001198737468528274
-0.00010885087357900426
-0.00010333943694209268
-8.404940871290214e-05
-5.6492225528344285e-05
-2.342360570687485e-05
-1.377859159228559e-06
1.7912169069961946e-05
3.444647898069667e-05
4.546935225451981e-05
4.82250705729756e-05
4.546935225451981e-05
2.8935042343785094e-05
2.066788738841773e-05
2.3423605706873515e-05
2.3423605706873515e-05
4.133577477683014e-06
-2.066788738841907e-05
-3.995791561760957e-05
-5.098078889143272e-05
-5.9247943846800084e-05
-8.129369039444639e-05
-0.00010333943694209268
-0.00011436231021591582
-0.0001198737468528274
-0.0001171180285343716
-0.0001171180285343716
-0.00012538518348973897
-0.0001364080567635621
-0.0001391637750820179
-0.0001364080567635621
-0.0001391637750820179
-0.00015569808499275262
-0.00017498811322194308
-0.00018601098649576628
-0.00018601098649576628
-0.00015294236667429682
-2.342360570687485e-05
0.00024112535286488067
0.0006572388189517045
0.001167046707866025
0.0016382745403219644
0.001938647837033645
0.0019910064850843048
0.0017071674982833593
0.0011753138628213923
0.000456071381704432
-0.0003899341420614945
-0.0007095974670023658
-0.000500162874799726
-0.00041197988860914084
-0.0003430869306477461
-0.0002962397192339978
-0.00026592681773098404
-0.00024112535286488197
-0.0002218353246356915
-0.0002108124513618684
-0.0002108124513618684
-0.0002108124513618684
-0.00020254529640650095
-0.00018601098649576628
-0.00017223239490348733
-0.00016947667658503157
-0.00017223239490348733
-0.00016672095826657574
-0.00015294236667429682
-0.00014191949340047367
-0.00014191949340047367
-0.00014191949340047367
-0.0001391637750820179
-0.00012814090180819475
-0.00011436231021591582
-0.00011160659189746003
-0.00011436231021591582
-0.00011436231021591582
-0.00010609515526054846
-9.231656366826955e-05
-8.129369039444639e-05
-8.404940871290214e-05
-8.129369039444639e-05
-7.027081712062322e-05
-5.6492225528344285e-05
-4.2713633936065354e-05
-3.720219729915378e-05
-3.4446478980697995e-05
-2.066788738841907e-05
1.3778591592272275e-06
2.6179324025329308e-05
3.720219729915245e-05
4.82250705729756e-05
5.649222552834297e-05
6.751509880216611e-05
7.578225375753347e-05
7.30265354390777e-05
5.649222552834297e-05
3.9957915617608246e-05
3.169076066224089e-05
2.8935042343785094e-05
1.7912169069961946e-05
-4.133577477684346e-06
-2.066788738841907e-05
-2.6179324025330647e-05
-2.8935042343786426e-05
-4.2713633936065354e-05
-5.9247943846800084e-05
-8.129369039444639e-05
-9.231656366826955e-05
-9.507228198672531e-05
-0.00010333943694209268
-0.0001198737468528274
-0.0001391637750820179
-0.000150186648355841
-0.00015294236667429682
-0.0001612095216296642
-0.00017498811322194308
-0.00018876670481422206
-0.00019703385976958942
-0.00019152242313267784
-0.00018601098649576628
-0.00017498811322194308
-0.00016672095826657574
-0.00014191949340047367
-0.00011436231021591582
-9.78280003051811e-05
-9.231656366826955e-05
-8.129369039444639e-05
-5.3736507209888505e-05
-2.342360570687485e-05
9.64501411459459e-06
2.6179324025329308e-05
2.8935042343785094e-05
3.169076066224089e-05
4.271363393606403e-05
4.546935225451981e-05
3.720219729915245e-05
2.3423605706873515e-05
2.066788738841773e-05
1.5156450751506162e-05
1.3778591592272275e-06
-1.7912169069963278e-05
-4.2713633936065354e-05
-6.475938048371164e-05
-8.129369039444639e-05
-9.231656366826955e-05
-0.00010333943694209268
-0.00011436231021591582
-0.00012538518348973897
-0.00012538518348973897
-0.0001226294651712832
-0.00012814090180819475
-0.0001364080567635621
-0.000150186648355841
-0.00015294236667429682
-0.000150186648355841
