1.3778591592272275e-06
-1.240073243305171e-05
-2.8935042343786426e-05
-4.5469352254521147e-05
-5.098078889143272e-05
-5.9247943846800084e-05
-8.956084534981374e-05
-0.0001198737468528274
-0.00012538518348973897
-0.00012538518348973897
-0.00012538518348973897
-0.0001336523384451063
-0.0001391637750820179
-0.0001391637750820179
-0.0001364080567635621
-0.0001364080567635621
-0.00014191949340047367
-0.00015294236667429682
-0.0001612095216296642
-0.00016396523994811996
-0.00016947667658503157
-0.00017498811322194308
-0.0001391637750820179
4.133577477683014e-06
0.0002824611276417174
0.0006710174105439835
0.0010843751583123511
0.0014343513847562366
0.0016272516670481415
0.0015556029907682909
0.0011422452429999228
0.000508430029755092
-0.0002604153810940725
-0.0006930631570916311
-0.0006269259174486923
-0.0004891400015259028
-0.00040095701533531767
-0.0003485983672846577
-0.0003100183108262768
-0.0002686825360494398
-0.00023836963454642628
-0.0002218353246356915
-0.0002190796063172357
-0.0002080567330434125
-0.00019427814145113364
-0.00018049954985885472
-0.00017223239490348733
-0.00017498811322194308
-0.00016947667658503157
-0.00015569808499275262
-0.00014467521171892948
-0.0001391637750820179
-0.0001364080567635621
-0.0001336523384451063
-0.0001198737468528274
-0.00010058371862363688
-9.231656366826955e-05
-9.231656366826955e-05
-9.507228198672531e-05
-8.404940871290214e-05
-6.751509880216745e-05
-5.6492225528344285e-05
-5.6492225528344285e-05
-5.3736507209888505e-05
-4.2713633936065354e-05
-2.066788738841907e-05
1.3778591592272275e-06
1.7912169069961946e-05
2.8935042343785094e-05
5.649222552834297e-05
9.507228198672396e-05
0.00012814090180819342
0.00015018664835583973
0.0001694766765850302
0.0001832552681773092
0.00019978957808804387
0.00020805673304341124
0.00020530101472495543
0.00019427814145113231
0.00017774383154039756
0.000172232394903486
0.00016120952162966288
0.00013640805676356078
0.00010333943694209132
7.02708171206219e-05
4.82250705729756e-05
2.8935042343785094e-05
9.64501411459459e-06
-1.240073243305171e-05
-3.4446478980697995e-05
-4.8225070572976926e-05
-5.3736507209888505e-05
-6.200366216525588e-05
-8.129369039444639e-05
-0.00010058371862363688
-0.00010609515526054846
-0.00010333943694209268
-0.00010333943694209268
-0.00011160659189746003
-0.00012538518348973897
-0.0001336523384451063
-0.00012538518348973897
-0.0001171180285343716
-0.00011160659189746003
-0.00011160659189746003
-0.00010333943694209268
-8.129369039444639e-05
-6.751509880216745e-05
-6.751509880216745e-05
-7.027081712062322e-05
-6.200366216525588e-05
-9.64501411459592e-06
4.133577477683014e-06
1.3778591592272275e-06
-9.64501411459592e-06
-9.64501411459592e-06
-6.889295796140132e-06
-1.240073243305171e-05
-2.6179324025330647e-05
-3.720219729915378e-05
-4.8225070572976926e-05
-5.9247943846800084e-05
-7.302653543907902e-05
-9.507228198672531e-05
-0.0001226294651712832
-0.0001391637750820179
-0.0001391637750820179
-0.0001364080567635621
-0.0001391637750820179
-0.000150186648355841
-0.0001584538033112084
-0.000150186648355841
-0.00014743093003738526
-0.00014467521171892948
-0.0001584538033112084
-0.00016672095826657574
-0.00016672095826657574
-0.00016672095826657574
-0.00017223239490348733
-0.00018049954985885472
-0.00012814090180819475
3.720219729915245e-05
0.00030450687418936376
0.000679284565499351
0.0011009094682230861
0.0014453742580300595
0.001630007385366597
0.00151702293430991
0.0010623294117647053
0.0004064684519722279
-0.0003651326771953924
-0.0007399103685053794
-0.0006379487907225153
-0.0004974071564812702
-0.0004202470435645082
-0.00036237695887693665
-0.0003127740291447324
-0.0002631710994125282
-0.00023010247959105888
-0.0002190796063172357
-0.0002190796063172357
-0.0002190796063172357
-0.00020254529640650095
-0.00018049954985885472
-0.00017223239490348733
-0.00017223239490348733
-0.00016947667658503157
-0.0001584538033112084
-0.0001391637750820179
-0.00012814090180819475
-0.00012538518348973897
-0.00012538518348973897
-0.0001171180285343716
-0.00010058371862363688
-8.956084534981374e-05
-8.404940871290214e-05
-8.404940871290214e-05
-7.57822537575348e-05
-5.9247943846800084e-05
-3.4446478980697995e-05
-3.169076066224221e-05
-2.342360570687485e-05
6.8892957961388014e-06
3.444647898069667e-05
5.373650720988717e-05
7.578225375753347e-05
0.00010333943694209132
0.00014743093003738393
0.00019427814145113231
0.00023285819790951333
0.00026041538109407124
0.00027970540932326175
0.000301751155870908
0.0003182854657816428
0.00032379690241855427
0.0003127740291447311
0.00029623971923399637
0.0002852168459601733
0.00027143825436789435
0.0002493925078202481
0.00021632388799877858
0.00017774383154039756
0.00014743093003738393
0.00011711802853437029
9.23165636682682e-05
6.475938048371032e-05
3.720219729915245e-05
1.5156450751506162e-05
4.133577477683014e-06
-9.64501411459592e-06
-2.342360570687485e-05
-4.2713633936065354e-05
-6.200366216525588e-05
-6.475938048371164e-05
-6.475938048371164e-05
-7.85379720759906e-05
-9.231656366826955e-05
-0.00010058371862363688
-0.00010058371862363688
-9.507228198672531e-05
-8.956084534981374e-05
-8.404940871290214e-05
-8.129369039444639e-05
-6.751509880216745e-05
-4.8225070572976926e-05
-3.995791561760957e-05
-4.5469352254521147e-05
-5.098078889143272e-05
-3.995791561760957e-05
-1.240073243305171e-05
1.5156450751506162e-05
2.6179324025329308e-05
1.7912169069961946e-05
1.2400732433050376e-05
1.5156450751506162e-05
1.2400732433050376e-05
-1.377859159228559e-06
-1.7912169069963278e-05
-2.6179324025330647e-05
-3.169076066224221e-05
-4.2713633936065354e-05
-5.6492225528344285e-05
-8.680512703135793e-05
-0.00011436231021591582
-0.0001226294651712832
-0.00012538518348973897
-0.00012538518348973897
-0.0001336523384451063
-0.00014191949340047367
-0.0001364080567635621
-0.0001364080567635621
-0.00014191949340047367
-0.00015569808499275262
-0.0001584538033112084
-0.00015569808499275262
-0.00016396523994811996
-0.00018049954985885472
-0.00019427814145113364
-0.00014191949340047367
2.3423605706873515e-05
0.0003072625925078196
0.000701330312046997
0.0011477566796368347
0.0015280458075837332
0.0017347246814679172
0.001630007385366597
0.0011642909895475692
0.0005001628747997245
-0.00028797256427863044
-0.0006958188754100868
-0.0006131473258564133
-0.00048362856488899143
-0.0004147356069275966
-0.00036237695887693665
-0.0003127740291447324
-0.0002604153810940725
-0.00023285819790951464
-0.00022734676127260308
-0.00023010247959105888
-0.0002190796063172357
-0.00019703385976958942
-0.00018876670481422206
-0.00018601098649576628
-0.00018325526817731047
-0.00017498811322194308
-0.00015569808499275262
-0.0001391637750820179
-0.0001336523384451063
-0.00013089662012665053
-0.00012814090180819475
-0.00011436231021591582
-0.00010333943694209268
-9.507228198672531e-05
-9.231656366826955e-05
-8.956084534981374e-05
-7.85379720759906e-05
-5.9247943846800084e-05
-4.8225070572976926e-05
-4.8225070572976926e-05
-4.2713633936065354e-05
-2.6179324025330647e-05
-6.889295796140132e-06
1.2400732433050376e-05
2.3423605706873515e-05
4.271363393606403e-05
7.30265354390777e-05
0.00011436231021591448
0.00015018664835583973
0.00017774383154039756
0.00019978957808804387
0.00022734676127260172
0.00025214822613870384
0.00027143825436789435
0.0002741939726863501
0.000263171099412527
0.0002576596627756154
0.00024663678950179223
0.00022459104295414594
0.00018601098649576498
0.00014743093003738393
0.00011987374685282605
0.00010058371862363556
7.02708171206219e-05
3.444647898069667e-05
4.133577477683014e-06
-9.64501411459592e-06
-1.7912169069963278e-05
-3.169076066224221e-05
-5.098078889143272e-05
-7.027081712062322e-05
-7.85379720759906e-05
-7.57822537575348e-05
-7.85379720759906e-05
-8.956084534981374e-05
-0.00010333943694209268
-0.00010609515526054846
-9.78280003051811e-05
-9.231656366826955e-05
-9.231656366826955e-05
-8.956084534981374e-05
-7.85379720759906e-05
-5.6492225528344285e-05
-3.720219729915378e-05
-3.4446478980697995e-05
-4.5469352254521147e-05
-4.5469352254521147e-05
-2.342360570687485e-05
4.133577477683014e-06
2.3423605706873515e-05
2.6179324025329308e-05
2.066788738841773e-05
2.066788738841773e-05
2.3423605706873515e-05
2.066788738841773e-05
4.133577477683014e-06
-1.5156450751507488e-05
-2.066788738841907e-05
-2.6179324025330647e-05
-3.720219729915378e-05
-5.6492225528344285e-05
-8.404940871290214e-05
-0.00010333943694209268
-0.00011436231021591582
-0.0001171180285343716
-0.0001171180285343716
-0.00012814090180819475
-0.0001336523384451063
-0.00012814090180819475
-0.00012538518348973897
-0.00013089662012665053
-0.00014191949340047367
-0.00014743093003738526
-0.000150186648355841
-0.00015569808499275262
-0.00016672095826657574
-0.00019427814145113364
-0.0002190796063172357
-0.00016947667658503157
4.133577477683014e-06
0.000315529747463187
0.0007454218051422897
0.0012111382009613175
0.0016244959487296858
0.0018669991607537949
0.0013158554970626377
0.0006544831006332488
-0.000150186648355841
-0.0006351930724040594
-0.0005883458609903113
-0.00047260569161516804
-0.00041197988860914084
-0.0003568655222400251
-0.0002989954375524536
-0.0002549039444571609
-0.00023285819790951464
-0.00022734676127260308
-0.0002218353246356915
-0.00020530101472495681
-0.00018876670481422206
-0.00018325526817731047
-0.00018049954985885472
-0.00018049954985885472
-0.00016672095826657574
-0.000150186648355841
-0.0001391637750820179
-0.0001364080567635621
-0.0001391637750820179
-0.00012538518348973897
-0.00010609515526054846
-9.507228198672531e-05
-9.507228198672531e-05
-9.78280003051811e-05
-9.231656366826955e-05
-7.85379720759906e-05
-6.475938048371164e-05
-6.475938048371164e-05
-6.475938048371164e-05
-5.9247943846800084e-05
-4.2713633936065354e-05
-2.6179324025330647e-05
-1.5156450751507488e-05
-4.133577477684346e-06
9.64501411459459e-06
3.9957915617608246e-05
7.02708171206219e-05
9.782800030517979e-05
0.00012262946517128183
0.00014191949340047234
0.00016120952162966288
0.0001832552681773092
0.0001970338597695881
0.0001970338597695881
0.00019152242313267648
0.0001970338597695881
0.0001970338597695881
0.00018601098649576498
0.00016396523994811866
0.00013640805676356078
0.00011160659189745871
8.68051270313566e-05
5.9247943846798756e-05
2.8935042343785094e-05
-4.133577477684346e-06
-2.6179324025330647e-05
-3.720219729915378e-05
-4.5469352254521147e-05
-6.200366216525588e-05
-7.85379720759906e-05
-8.956084534981374e-05
-8.956084534981374e-05
-8.680512703135793e-05
-8.680512703135793e-05
-0.00010333943694209268
-9.507228198672531e-05
-8.404940871290214e-05
-8.129369039444639e-05
-7.85379720759906e-05
-7.027081712062322e-05
-5.098078889143272e-05
-2.6179324025330647e-05
-9.64501411459592e-06
-9.64501411459592e-06
-1.5156450751507488e-05
-6.889295796140132e-06
1.7912169069961946e-05
3.9957915617608246e-05
5.373650720988717e-05
5.649222552834297e-05
5.649222552834297e-05
5.649222552834297e-05
5.649222552834297e-05
4.546935225451981e-05
2.6179324025329308e-05
1.2400732433050376e-05
1.2400732433050376e-05
4.133577477683014e-06
-1.5156450751507488e-05
-3.720219729915378e-05
-6.200366216525588e-05
-7.57822537575348e-05
-8.956084534981374e-05
-0.00010058371862363688
-0.00011160659189746003
-0.0001226294651712832
-0.00012538518348973897
-0.0001198737468528274
-0.0001171180285343716
-0.00012814090180819475
-0.0001364080567635621
-0.0001391637750820179
-0.0001364080567635621
-0.0001391637750820179
-0.0001584538033112084
-0.00018876670481422206
-0.0002218353246356915
-0.00019703385976958942
-5.098078889143272e-05
0.0002493925078202481
0.0006847960021362622
0.001178069581139848
0.0016272516670481415
0.0019138463721675438
0.001891800625619897
0.0014839543144884403
0.0008501391012436096
5.373650720988717e-05
-0.0005607886778057534
-0.0005993687342641343
-0.0004918957198443586
-0.0004285141985198755
-0.00036237695887693665
-0.0003100183108262768
-0.0002686825360494398
-0.0002466367895017936
-0.00023836963454642628
-0.00023010247959105888
-0.00021356816968032413
-0.00019703385976958942
-0.00019427814145113364
-0.00019703385976958942
-0.00016947667658503157
-0.00015569808499275262
-0.000150186648355841
-0.00015294236667429682
-0.00014743093003738526
-0.00013089662012665053
-0.0001171180285343716
-0.00010885087357900426
-0.00010885087357900426
-0.00010609515526054846
-9.507228198672531e-05
-8.129369039444639e-05
-7.302653543907902e-05
-7.027081712062322e-05
-7.027081712062322e-05
-5.6492225528344285e-05
-3.720219729915378e-05
-2.342360570687485e-05
-2.066788738841907e-05
-1.5156450751507488e-05
4.133577477683014e-06
3.444647898069667e-05
6.200366216525454e-05
8.404940871290084e-05
0.00010058371862363556
0.00011987374685282605
0.00014191949340047234
0.00016120952162966288
0.00016672095826657444
0.00015845380331120705
0.00015294236667429551
0.00015845380331120705
0.00016120952162966288
0.00015294236667429551
0.00013365233844510492
0.00011160659189745871
9.507228198672396e-05
7.30265354390777e-05
4.546935225451981e-05
6.8892957961388014e-06
-2.342360570687485e-05
-4.2713633936065354e-05
-5.6492225528344285e-05
-7.027081712062322e-05
-8.956084534981374e-05
-0.00010609515526054846
-0.00011436231021591582
-0.00011160659189746003
-0.00010885087357900426
-0.00011436231021591582
-0.00012538518348973897
-0.00012538518348973897
-0.00011436231021591582
-0.00010609515526054846
-0.00010333943694209268
-0.00010058371862363688
-8.680512703135793e-05
-5.9247943846800084e-05
-3.4446478980697995e-05
-2.066788738841907e-05
-1.7912169069963278e-05
-1.7912169069963278e-05
-6.889295796140132e-06
1.7912169069961946e-05
3.720219729915245e-05
5.098078889143139e-05
5.373650720988717e-05
5.649222552834297e-05
5.9247943846798756e-05
4.546935225451981e-05
3.169076066224089e-05
2.6179324025329308e-05
2.3423605706873515e-05
1.5156450751506162e-05
-1.240073243305171e-05
-3.720219729915378e-05
-5.098078889143272e-05
-6.200366216525588e-05
-8.129369039444639e-05
-9.507228198672531e-05
-0.00010609515526054846
-0.00011160659189746003
-0.00010885087357900426
-0.00010609515526054846
-0.00011160659189746003
-0.00012538518348973897
-0.00013089662012665053
-0.00012814090180819475
-0.00012538518348973897
-0.0001364080567635621
-0.00015569808499275262
-0.00018049954985885472
-0.00020530101472495681
-0.00018601098649576628
-5.6492225528344285e-05
0.00023561391622796914
0.0006682616922255276
0.0011753138628213923
0.0016437859769588762
0.0019524264286259246
0.001971716456855115
0.0016052059205004952
0.0009906807354848547
0.0002135681696803228
-0.00048638428320744705
-0.0006076358892195017
-0.0005029185931181816
-0.0004285141985198755
-0.0003596212405584808
-0.00030726259250782084
-0.00026592681773098404
-0.00024112535286488197
-0.00023285819790951464
-0.0002190796063172357
-0.00020254529640650095
-0.00019427814145113364
-0.00019152242313267784
-0.00018876670481422206
-0.0001777438315403989
-0.00016396523994811996
-0.00015569808499275262
-0.00015294236667429682
-0.00015294236667429682
-0.0001391637750820179
-0.00012538518348973897
-0.00011436231021591582
-0.00011160659189746003
-0.00011436231021591582
-0.00010885087357900426
-8.956084534981374e-05
-8.129369039444639e-05
-8.404940871290214e-05
-8.404940871290214e-05
-7.57822537575348e-05
-5.6492225528344285e-05
-4.2713633936065354e-05
-3.720219729915378e-05
-2.066788738841907e-05
1.3778591592272275e-06
2.8935042343785094e-05
4.546935225451981e-05
5.9247943846798756e-05
7.853797207598924e-05
0.00010885087357900291
0.00013640805676356078
0.00014467521171892812
0.00014743093003738393
0.00014191949340047234
0.00014191949340047234
0.00014743093003738393
0.00015018664835583973
0.00013916377508201656
0.00011987374685282605
0.00011160659189745871
0.00010058371862363556
7.853797207598924e-05
4.546935225451981e-05
9.64501411459459e-06
-1.240073243305171e-05
-2.8935042343786426e-05
-4.5469352254521147e-05
-6.751509880216745e-05
-8.956084534981374e-05
-0.00010058371862363688
-9.78280003051811e-05
-9.507228198672531e-05
-0.00010609515526054846
-0.00011436231021591582
-0.0001171180285343716
-0.00010609515526054846
-9.78280003051811e-05
-9.507228198672531e-05
-9.231656366826955e-05
-8.680512703135793e-05
-7.027081712062322e-05
-4.5469352254521147e-05
-2.342360570687485e-05
-6.889295796140132e-06
-4.133577477684346e-06
4.133577477683014e-06
2.066788738841773e-05
3.169076066224089e-05
4.546935225451981e-05
5.098078889143139e-05
6.200366216525454e-05
8.129369039444505e-05
8.404940871290084e-05
7.30265354390777e-05
5.373650720988717e-05
3.9957915617608246e-05
3.720219729915245e-05
3.720219729915245e-05
2.3423605706873515e-05
-6.889295796140132e-06
-2.8935042343786426e-05
-3.4446478980697995e-05
-4.8225070572976926e-05
-7.302653543907902e-05
-9.78280003051811e-05
-0.00011160659189746003
-0.00011160659189746003
-0.00010885087357900426
-0.00010885087357900426
-0.0001171180285343716
-0.00012538518348973897
-0.0001198737468528274
-0.0001226294651712832
-0.0001336523384451063
-0.00015569808499275262
-0.00017223239490348733
-0.00018601098649576628
-0.00018876670481422206
-0.00010333943694209268
0.00013089662012664922
0.000508430029755092
0.0009686349889372082
0.0013985270466163114
0.0017099232166018147
0.0018091290760662239
0.0015914273289082165
0.0010926423132677188
0.0004064684519722279
-0.000370644113832304
-0.00065448310063325
-0.0005580329594872974
-0.0004560713817044334
-0.00037339983215075977
-0.0003155297474631883
-0.00027694969100480727
-0.00024939250782024937
-0.00023010247959105888
-0.00021632388799877996
-0.0002080567330434125
-0.00020254529640650095
-0.0001997895780880452
-0.00018876670481422206
-0.00017223239490348733
-0.0001612095216296642
-0.00015569808499275262
-0.0001584538033112084
-0.000150186648355841
-0.0001336523384451063
-0.0001226294651712832
-0.00011436231021591582
-0.0001171180285343716
-0.00011436231021591582
-0.00010058371862363688
-8.680512703135793e-05
-8.404940871290214e-05
-8.129369039444639e-05
-8.129369039444639e-05
-6.751509880216745e-05
-5.098078889143272e-05
-3.995791561760957e-05
-3.720219729915378e-05
-3.4446478980697995e-05
-1.7912169069963278e-05
6.8892957961388014e-06
2.8935042343785094e-05
4.546935225451981e-05
6.475938048371032e-05
8.956084534981241e-05
0.00011436231021591448
0.00013365233844510492
0.00013640805676356078
0.00013089662012664922
0.00012814090180819342
0.00013089662012664922
0.0001253851834897376
0.00011436231021591448
9.782800030517979e-05
8.129369039444505e-05
7.578225375753347e-05
5.098078889143139e-05
2.066788738841773e-05
-9.64501411459592e-06
-2.8935042343786426e-05
-4.5469352254521147e-05
-6.475938048371164e-05
-8.956084534981374e-05
-0.00011160659189746003
-0.0001198737468528274
-0.0001226294651712832
-0.00012814090180819475
-0.00014191949340047367
-0.000150186648355841
-0.00014743093003738526
-0.0001364080567635621
-0.00012538518348973897
-0.00012538518348973897
-0.00012814090180819475
-0.0001226294651712832
-0.00010058371862363688
-7.57822537575348e-05
-5.6492225528344285e-05
-4.2713633936065354e-05
-2.8935042343786426e-05
-1.240073243305171e-05
-1.377859159228559e-06
-1.377859159228559e-06
1.2400732433050376e-05
2.3423605706873515e-05
4.546935225451981e-05
5.649222552834297e-05
5.373650720988717e-05
4.271363393606403e-05
2.8935042343785094e-05
2.6179324025329308e-05
2.066788738841773e-05
1.2400732433050376e-05
-1.377859159228559e-06
-2.8935042343786426e-05
-4.8225070572976926e-05
-5.098078889143272e-05
-6.200366216525588e-05
-8.680512703135793e-05
-0.00011436231021591582
-0.00012538518348973897
-0.0001226294651712832
-0.00012538518348973897
-0.00013089662012665053
-0.00014191949340047367
-0.00014467521171892948
-0.0001364080567635621
-0.0001336523384451063
-0.00014191949340047367
-0.00015569808499275262
-0.00016947667658503157
-0.00017223239490348733
-0.0001777438315403989
-0.00018601098649576628
-0.0001391637750820179
3.169076066224089e-05
0.0003568655222400236
0.0007647118333714802
0.0011587795529106576
0.0014729314412146172
0.0016327631036850527
0.0015638701457236582
0.0011835810177767598
0.0005938572976272215
-0.0006269259174486923
-0.00060212445258259
-0.00048087284657053543
-0.0003982012970168618
-0.0003458426489662019
-0.0003045068741893651
-0.0002686825360494398
-0.00023561391622797047
-0.0002218353246356915
-0.0002190796063172357
-0.00021632388799877996
-0.0002108124513618684
-0.0001997895780880452
-0.00018601098649576628
-0.0001777438315403989
-0.00018049954985885472
-0.00017498811322194308
-0.00016396523994811996
-0.000150186648355841
-0.00014191949340047367
-0.0001391637750820179
-0.00014191949340047367
-0.00013089662012665053
-0.0001171180285343716
-0.00011160659189746003
-0.00011160659189746003
-0.00011436231021591582
-0.00010885087357900426
-9.78280003051811e-05
-8.956084534981374e-05
-8.956084534981374e-05
-8.680512703135793e-05
-7.85379720759906e-05
-6.200366216525588e-05
-4.2713633936065354e-05
-3.169076066224221e-05
-2.342360570687485e-05
-6.889295796140132e-06
2.3423605706873515e-05
5.098078889143139e-05
6.475938048371032e-05
6.751509880216611e-05
6.475938048371032e-05
6.751509880216611e-05
7.30265354390777e-05
7.02708171206219e-05
5.649222552834297e-05
4.546935225451981e-05
4.271363393606403e-05
3.9957915617608246e-05
3.720219729915245e-05
1.7912169069961946e-05
-6.889295796140132e-06
-2.6179324025330647e-05
-3.720219729915378e-05
-5.098078889143272e-05
-7.027081712062322e-05
-9.231656366826955e-05
-0.00010333943694209268
-0.00010609515526054846
-0.00010885087357900426
-0.0001171180285343716
-0.00013089662012665053
-0.0001364080567635621
-0.00012814090180819475
-0.0001198737468528274
-0.0001198737468528274
-0.0001198737468528274
-0.00011160659189746003
-9.231656366826955e-05
-7.85379720759906e-05
-6.751509880216745e-05
-5.3736507209888505e-05
-3.169076066224221e-05
-6.889295796140132e-06
1.3778591592272275e-06
-1.377859159228559e-06
1.3778591592272275e-06
2.066788738841773e-05
4.271363393606403e-05
5.9247943846798756e-05
5.9247943846798756e-05
4.82250705729756e-05
4.271363393606403e-05
4.546935225451981e-05
4.271363393606403e-05
2.8935042343785094e-05
9.64501411459459e-06
-4.133577477684346e-06
-1.5156450751507488e-05
-2.6179324025330647e-05
-4.2713633936065354e-05
-6.751509880216745e-05
-9.507228198672531e-05
-0.00011160659189746003
-0.00011436231021591582
-0.00011436231021591582
-0.0001226294651712832
-0.00013089662012665053
-0.00013089662012665053
-0.00012538518348973897
-0.00012538518348973897
-0.0001364080567635621
-0.00014743093003738526
-0.00015294236667429682
-0.00015294236667429682
-0.00015569808499275262
-0.00017498811322194308
-0.00018049954985885472
-0.00010333943694209268
0.00012262946517128183
0.00047536140993362247
0.0008721848477912556
0.0012331839475089635
0.0015115114976729984
0.0016107173571374067
0.0014178170748455018
0.00092178777752346
0.00023285819790951333
-0.0004615828183413449
-0.0006434602273594267
-0.0005277200579842838
-0.0004312699168383313
-0.000370644113832304
-0.0003293083390554673
-0.00027694969100480727
-0.00023285819790951464
-0.00021632388799877996
-0.00021632388799877996
-0.0002190796063172357
-0.00021356816968032413
-0.0001997895780880452
-0.00018601098649576628
-0.00018049954985885472
-0.00018049954985885472
-0.0001777438315403989
-0.00014743093003738526
-0.0001391637750820179
-0.00014191949340047367
-0.0001391637750820179
-0.00012814090180819475
-0.00011436231021591582
-0.00010885087357900426
-0.00011436231021591582
-0.0001171180285343716
-0.00010609515526054846
-8.956084534981374e-05
-8.404940871290214e-05
-8.129369039444639e-05
-8.129369039444639e-05
-7.302653543907902e-05
-5.6492225528344285e-05
-4.2713633936065354e-05
-3.720219729915378e-05
-2.8935042343786426e-05
-9.64501411459592e-06
1.7912169069961946e-05
4.271363393606403e-05
5.373650720988717e-05
5.9247943846798756e-05
6.751509880216611e-05
8.129369039444505e-05
8.956084534981241e-05
8.68051270313566e-05
7.578225375753347e-05
7.30265354390777e-05
7.30265354390777e-05
7.02708171206219e-05
6.200366216525454e-05
3.9957915617608246e-05
1.5156450751506162e-05
1.3778591592272275e-06
-9.64501411459592e-06
-2.6179324025330647e-05
-5.098078889143272e-05
-7.302653543907902e-05
-8.129369039444639e-05
-8.404940871290214e-05
-8.956084534981374e-05
-0.00010058371862363688
-0.0001171180285343716
-0.0001198737468528274
-0.0001171180285343716
-0.0001171180285343716
-0.0001226294651712832
-0.00012814090180819475
-0.00012538518348973897
-0.0001171180285343716
-0.00011160659189746003
-0.00011160659189746003
-0.00011160659189746003
-0.00010333943694209268
-7.57822537575348e-05
-5.098078889143272e-05
-3.720219729915378e-05
-4.2713633936065354e-05
-4.8225070572976926e-05
-3.169076066224221e-05
-6.889295796140132e-06
1.2400732433050376e-05
1.7912169069961946e-05
1.7912169069961946e-05
2.3423605706873515e-05
2.8935042343785094e-05
2.3423605706873515e-05
-1.240073243305171e-05
-1.7912169069963278e-05
-2.066788738841907e-05
-3.720219729915378e-05
-5.3736507209888505e-05
-7.85379720759906e-05
-9.507228198672531e-05
-0.00010885087357900426
-0.0001171180285343716
-0.00012538518348973897
-0.0001364080567635621
-0.00014191949340047367
-0.0001364080567635621
-0.0001336523384451063
-0.0001336523384451063
-0.00014467521171892948
-0.00015294236667429682
-0.000150186648355841
-0.00014743093003738526
-0.00015569808499275262
-0.00017223239490348733
-0.00018876670481422206
-0.0001612095216296642
-5.098078889143272e-05
0.00015845380331120705
0.00047536140993362247
0.0008832077210650791
0.0012910540321965354
0.001580404455634393
0.0016355188220035087
0.0013434126802471958
0.0007812461432822147
5.9247943846798756e-05
-0.0005883458609903113
-0.0006930631570916311
-0.0005580329594872974
-0.00046433853665980087
-0.00039268986037995033
-0.0003293083390554673
-0.00027970540932326305
-0.0002466367895017936
-0.00023285819790951464
-0.00022734676127260308
-0.00021632388799877996
-0.00020254529640650095
-0.00019152242313267784
-0.00018325526817731047
-0.00018601098649576628
-0.00017223239490348733
-0.00015569808499275262
-0.00014743093003738526
-0.00014191949340047367
-0.00014191949340047367
-0.00013089662012665053
-0.00011436231021591582
-0.00010609515526054846
-0.00010333943694209268
-0.00010058371862363688
-9.507228198672531e-05
-8.129369039444639e-05
-7.027081712062322e-05
-6.475938048371164e-05
-6.475938048371164e-05
-5.098078889143272e-05
-3.169076066224221e-05
-1.240073243305171e-05
1.3778591592272275e-06
1.2400732433050376e-05
6.200366216525454e-05
0.00010333943694209132
0.00013916377508201656
0.00016396523994811866
0.00019152242313267648
0.00022459104295414594
0.00025214822613870384
0.00027143825436789435
0.0002741939726863501
0.0002686825360494386
0.00026592681773098274
0.0002686825360494386
0.00025214822613870384
0.00022734676127260172
0.0001970338597695881
0.00016672095826657444
0.00014467521171892812
0.00011987374685282605
8.956084534981241e-05
5.649222552834297e-05
2.8935042343785094e-05
1.7912169069961946e-05
1.2400732433050376e-05
-6.889295796140132e-06
-2.8935042343786426e-05
-5.098078889143272e-05
-5.6492225528344285e-05
-5.6492225528344285e-05
-6.751509880216745e-05
-8.404940871290214e-05
-9.78280003051811e-05
-0.00010058371862363688
-9.78280003051811e-05
-9.78280003051811e-05
-0.00010333943694209268
-0.00010885087357900426
-0.00010333943694209268
-8.404940871290214e-05
-6.751509880216745e-05
-5.9247943846800084e-05
-5.9247943846800084e-05
-5.3736507209888505e-05
-4.2713633936065354e-05
-2.6179324025330647e-05
-1.240073243305171e-05
-1.377859159228559e-06
1.5156450751506162e-05
2.8935042343785094e-05
2.8935042343785094e-05
2.066788738841773e-05
6.8892957961388014e-06
-4.133577477684346e-06
-9.64501411459592e-06
-6.889295796140132e-06
-2.066788738841907e-05
-4.8225070572976926e-05
-7.027081712062322e-05
-7.57822537575348e-05
-8.680512703135793e-05
-0.00010609515526054846
-0.0001198737468528274
-0.0001336523384451063
-0.0001336523384451063
-0.00013089662012665053
-0.00013089662012665053
-0.0001364080567635621
-0.00014743093003738526
-0.00014743093003738526
-0.0001391637750820179
-0.000150186648355841
-0.00016947667658503157
-0.00018325526817731047
-0.00018325526817731047
-0.00014191949340047367
-1.5156450751507488e-05
0.000210812451361867
0.0005497658045319286
0.000985169298847943
0.0013902598916609437
0.0016410302586404204
0.0016217402304112296
0.0012497182574196988
0.0006572388189517045
-8.956084534981374e-05
-0.0006489716639963384
-0.0006792845654993521
-0.0005442543678950186
-0.0004422927901121546
-0.00036788839551384826
-0.0003155297474631883
-0.00027694969100480727
-0.0002549039444571609
-0.00023561391622797047
-0.00021632388799877996
-0.00020254529640650095
-0.00019703385976958942
-0.00019427814145113364
-0.00018876670481422206
-0.00017223239490348733
-0.0001612095216296642
-0.00015569808499275262
-0.00015294236667429682
-0.00014467521171892948
-0.00012814090180819475
-0.0001171180285343716
-0.00010609515526054846
-0.00010609515526054846
-0.00010333943694209268
-8.956084534981374e-05
-7.027081712062322e-05
-6.200366216525588e-05
-6.200366216525588e-05
-6.200366216525588e-05
-4.8225070572976926e-05
-2.6179324025330647e-05
-9.64501411459592e-06
1.3778591592272275e-06
9.64501411459459e-06
2.8935042343785094e-05
5.9247943846798756e-05
9.507228198672396e-05
0.00012814090180819342
0.0001556980849927513
0.00019427814145113231
0.0002383696345464249
0.0002686825360494386
0.0002852168459601733
0.0002934840009155406
0.0002934840009155406
0.0002989954375524522
0.000301751155870908
0.0002879725642786291
0.00026041538109407124
0.00023010247959105753
0.00020530101472495543
0.00018049954985885336
0.00011160659189745871
7.30265354390777e-05
5.098078889143139e-05
3.444647898069667e-05
1.7912169069961946e-05
-6.889295796140132e-06
-3.4446478980697995e-05
-4.8225070572976926e-05
-5.3736507209888505e-05
-6.200366216525588e-05
-8.129369039444639e-05
-0.00010058371862363688
-0.00010609515526054846
-0.00010609515526054846
-0.00010609515526054846
-0.00011160659189746003
-0.0001226294651712832
-0.00012814090180819475
-0.0001171180285343716
-0.00010058371862363688
-8.956084534981374e-05
-8.404940871290214e-05
-7.85379720759906e-05
-6.751509880216745e-05
-5.3736507209888505e-05
-5.3736507209888505e-05
-4.8225070572976926e-05
-3.4446478980697995e-05
-9.64501411459592e-06
9.64501411459459e-06
1.2400732433050376e-05
4.133577477683014e-06
-4.133577477684346e-06
-1.240073243305171e-05
-1.240073243305171e-05
-1.7912169069963278e-05
-2.8935042343786426e-05
-5.3736507209888505e-05
-6.751509880216745e-05
-7.57822537575348e-05
-8.956084534981374e-05
-0.00011160659189746003
-0.0001364080567635621
-0.00014467521171892948
-0.00014191949340047367
-0.0001391637750820179
-0.00014191949340047367
-0.00015294236667429682
-0.0001612095216296642
-0.00015569808499275262
-0.00014743093003738526
-0.000150186648355841
-0.00016672095826657574
-0.00018601098649576628
-0.00019152242313267784
-0.0001997895780880452
-0.00021632388799877996
-0.00018049954985885472
-3.169076066224221e-05
0.0002549039444571596
0.000676528847180895
0.0011450009613183788
0.0015390686808575565
0.0017540147096971076
0.001657564568551155
0.0012138939192797731
0.0005745672693980309
-0.0002218353246356915
-0.0006462159456778825
-0.0005111857480735491
-0.0004312699168383313
-0.00037339983215075977
-0.0003348197756923787
-0.0002989954375524536
-0.0002631710994125282
-0.00023836963454642628
-0.00023010247959105888
-0.00023285819790951464
-0.00023285819790951464
-0.0002190796063172357
-0.00020254529640650095
-0.00019152242313267784
-0.00018876670481422206
-0.00018876670481422206
-0.00017498811322194308
-0.0001584538033112084
-0.00014467521171892948
-0.00014191949340047367
-0.00014467521171892948
-0.0001364080567635621
-0.0001198737468528274
-0.00010609515526054846
-0.00010333943694209268
-0.00010609515526054846
-0.00010333943694209268
-8.680512703135793e-05
-7.302653543907902e-05
-6.200366216525588e-05
-6.200366216525588e-05
-5.3736507209888505e-05
-2.8935042343786426e-05
-4.133577477684346e-06
1.7912169069961946e-05
3.720219729915245e-05
5.9247943846798756e-05
9.507228198672396e-05
0.00013365233844510492
0.00016396523994811866
0.00018049954985885336
0.00019427814145113231
0.0002135681696803228
0.00023285819790951333
0.0002383696345464249
0.00023010247959105753
0.0002135681696803228
0.0001970338597695881
0.00018601098649576498
0.00016396523994811866
0.00013089662012664922
9.23165636682682e-05
5.9247943846798756e-05
3.720219729915245e-05
1.7912169069961946e-05
-6.889295796140132e-06
-2.8935042343786426e-05
-4.8225070572976926e-05
-5.6492225528344285e-05
-6.200366216525588e-05
-7.57822537575348e-05
-9.231656366826955e-05
-0.00010609515526054846
-0.00010609515526054846
-0.00010333943694209268
-0.00010609515526054846
-0.0001171180285343716
-0.0001226294651712832
-0.00010058371862363688
-8.680512703135793e-05
-8.680512703135793e-05
-8.129369039444639e-05
-6.475938048371164e-05
-4.2713633936065354e-05
-3.720219729915378e-05
-3.995791561760957e-05
-4.2713633936065354e-05
-3.169076066224221e-05
-4.133577477684346e-06
2.3423605706873515e-05
2.6179324025329308e-05
1.2400732433050376e-05
6.8892957961388014e-06
6.8892957961388014e-06
4.133577477683014e-06
-6.889295796140132e-06
-1.5156450751507488e-05
-2.8935042343786426e-05
-4.2713633936065354e-05
-5.6492225528344285e-05
-7.027081712062322e-05
-9.231656366826955e-05
-0.0001198737468528274
-0.0001336523384451063
-0.0001336523384451063
-0.0001364080567635621
-0.00014743093003738526
-0.00015569808499275262
-0.00015569808499275262
-0.000150186648355841
-0.000150186648355841
-0.00015294236667429682
-0.00016672095826657574
-0.00017223239490348733
-0.00017498811322194308
-0.00018325526817731047
-0.00021356816968032413
-0.00023561391622797047
-0.00016672095826657574
4.546935225451981e-05
0.00040371273365377215
0.0008666734111543443
0.001335145525291828
0.0017044117799649037
0.0018725105973907065
0.001687877470054169
0.001167046707866025
0.0004533156633859763
-0.0003485983672846577
-0.0006820402838178078
-0.0005800787060349438
-0.0004698499732967123
-0.0004147356069275966
-0.000370644113832304
-0.0003210411841000998
-0.00027694969100480727
-0.00024939250782024937
-0.0002466367895017936
-0.0002466367895017936
-0.00023836963454642628
-0.0002190796063172357
-0.0002080567330434125
-0.00020254529640650095
-0.00020254529640650095
-0.0001997895780880452
-0.00018601098649576628
-0.00016947667658503157
-0.0001584538033112084
-0.00015569808499275262
-0.00014191949340047367
-0.00012538518348973897
-0.0001198737468528274
-0.0001198737468528274
-0.0001226294651712832
-0.00011436231021591582
-9.78280003051811e-05
-8.404940871290214e-05
-8.404940871290214e-05
-8.404940871290214e-05
-7.302653543907902e-05
-5.3736507209888505e-05
-3.720219729915378e-05
-2.342360570687485e-05
-1.5156450751507488e-05
6.8892957961388014e-06
4.271363393606403e-05
7.853797207598924e-05
0.00010058371862363556
0.00011436231021591448
0.0001253851834897376
0.00014743093003738393
0.00016120952162966288
0.00016396523994811866
0.0001556980849927513
0.00014743093003738393
0.00014743093003738393
0.00014467521171892812
0.0001253851834897376
9.782800030517979e-05
5.9247943846798756e-05
3.444647898069667e-05
1.2400732433050376e-05
-1.5156450751507488e-05
-4.2713633936065354e-05
-7.027081712062322e-05
-8.680512703135793e-05
-8.680512703135793e-05
-9.507228198672531e-05
-0.00011436231021591582
-0.0001336523384451063
-0.0001391637750820179
-0.0001364080567635621
-0.00013089662012665053
-0.0001364080567635621
-0.00014743093003738526
-0.00014467521171892948
-0.00013089662012665053
-0.00012538518348973897
-0.0001171180285343716
-0.00011160659189746003
-0.00010058371862363688
-7.85379720759906e-05
-5.3736507209888505e-05
-3.995791561760957e-05
-4.2713633936065354e-05
-5.098078889143272e-05
-3.169076066224221e-05
-9.64501411459592e-06
1.2400732433050376e-05
2.066788738841773e-05
1.2400732433050376e-05
6.8892957961388014e-06
1.5156450751506162e-05
1.5156450751506162e-05
-1.377859159228559e-06
-2.6179324025330647e-05
-2.8935042343786426e-05
-4.2713633936065354e-05
-5.9247943846800084e-05
-8.404940871290214e-05
-0.00010609515526054846
-0.0001171180285343716
-0.00012538518348973897
-0.0001336523384451063
-0.00014743093003738526
-0.00015569808499275262
-0.00015294236667429682
-0.00014743093003738526
-0.000150186648355841
-0.0001612095216296642
-0.00017223239490348733
-0.00017498811322194308
-0.00017498811322194308
-0.00018325526817731047
-0.00020530101472495681
-0.00024388107118333775
-0.0002466367895017936
-0.0001391637750820179
0.0001253851834897376
0.0005332314946211942
0.0010182379186694126
0.001492221469443808
0.0018477091325246043
0.0019331364003967336
0.0016382745403219644
0.001051306538490882
0.00029072828259708476
-0.00046433853665980087
-0.00065448310063325
-0.0005470100862134743
-0.0004698499732967123
-0.00040922417029068495
-0.0003513540856031135
-0.00030175115587090934
-0.00026592681773098404
-0.0002521482261387052
-0.0002521482261387052
-0.00024112535286488197
-0.00022459104295414727
-0.00021632388799877996
-0.00021356816968032413
-0.00021356816968032413
-0.00020254529640650095
-0.00018601098649576628
-0.00017498811322194308
-0.00017223239490348733
-0.00017498811322194308
-0.00016672095826657574
-0.00014743093003738526
-0.0001364080567635621
-0.0001336523384451063
-0.0001364080567635621
-0.00012538518348973897
-0.00011160659189746003
-0.00010333943694209268
-0.00010058371862363688
-9.78280003051811e-05
-9.507228198672531e-05
-7.85379720759906e-05
-6.475938048371164e-05
-5.6492225528344285e-05
-5.098078889143272e-05
-4.2713633936065354e-05
1.5156450751506162e-05
3.720219729915245e-05
5.649222552834297e-05
7.02708171206219e-05
9.507228198672396e-05
0.00011987374685282605
0.00012814090180819342
0.00012262946517128183
0.00011436231021591448
0.00011436231021591448
0.00011987374685282605
0.00011987374685282605
0.00010058371862363556
8.404940871290084e-05
6.475938048371032e-05
4.82250705729756e-05
2.6179324025329308e-05
-1.377859159228559e-06
-3.720219729915378e-05
-6.475938048371164e-05
-7.85379720759906e-05
-8.680512703135793e-05
-9.78280003051811e-05
-0.0001171180285343716
-0.00013089662012665053
-0.0001336523384451063
-0.00013089662012665053
-0.00013089662012665053
-0.0001391637750820179
-0.00014467521171892948
-0.0001364080567635621
-0.0001226294651712832
-0.00011436231021591582
-0.00011436231021591582
-0.00011160659189746003
-9.231656366826955e-05
-7.027081712062322e-05
-4.5469352254521147e-05
-3.720219729915378e-05
-3.995791561760957e-05
-3.4446478980697995e-05
-1.5156450751507488e-05
4.133577477683014e-06
2.066788738841773e-05
2.8935042343785094e-05
2.8935042343785094e-05
3.720219729915245e-05
3.9957915617608246e-05
3.444647898069667e-05
1.7912169069961946e-05
1.3778591592272275e-06
-4.133577477684346e-06
-4.133577477684346e-06
-2.066788738841907e-05
-4.5469352254521147e-05
-6.751509880216745e-05
-7.85379720759906e-05
-9.231656366826955e-05
-0.00011160659189746003
-0.00012538518348973897
-0.0001391637750820179
-0.0001391637750820179
-0.0001336523384451063
-0.00013089662012665053
-0.0001391637750820179
-0.0001584538033112084
-0.0001584538033112084
-0.00015294236667429682
-0.00017223239490348733
-0.00019427814145113364
-0.0002218353246356915
-0.00024112535286488197
-0.0001997895780880452
-3.4446478980697995e-05
0.00029072828259708476
0.0007481775234607456
0.001246962539101243
0.0016768545967803456
0.0019193578088044546
0.0018477091325246043
0.0014178170748455018
0.0007784904249637591
-3.169076066224221e-05
-0.0006131473258564133
-0.000629681635767148
-0.0005222086213473721
-0.00045055994506752175
-0.0003844227054245829
-0.0003293083390554673
-0.00029348400091554195
-0.00027694969100480727
-0.00026592681773098404
-0.00024939250782024937
-0.00023836963454642628
-0.00023010247959105888
-0.00023010247959105888
-0.00022734676127260308
-0.0002080567330434125
-0.00019703385976958942
-0.00019152242313267784
-0.00018601098649576628
-0.00018049954985885472
-0.00016947667658503157
-0.00015569808499275262
-0.00014467521171892948
-0.00014191949340047367
-0.00014191949340047367
-0.0001336523384451063
-0.0001171180285343716
-0.00010609515526054846
-0.00010333943694209268
-0.00010333943694209268
-9.507228198672531e-05
-8.129369039444639e-05
-6.751509880216745e-05
-5.6492225528344285e-05
-5.098078889143272e-05
-3.4446478980697995e-05
-6.889295796140132e-06
1.7912169069961946e-05
3.9957915617608246e-05
5.649222552834297e-05
7.853797207598924e-05
0.00010333943694209132
0.0001253851834897376
0.00013365233844510492
0.00012814090180819342
0.0001253851834897376
0.00013089662012664922
0.00013089662012664922
0.0001253851834897376
0.00010609515526054714
8.68051270313566e-05
7.578225375753347e-05
6.200366216525454e-05
3.9957915617608246e-05
-3.169076066224221e-05
-5.6492225528344285e-05
-6.475938048371164e-05
-8.404940871290214e-05
-0.00010885087357900426
-0.00012814090180819475
-0.0001391637750820179
-0.0001364080567635621
-0.0001364080567635621
-0.00014467521171892948
-0.0001584538033112084
-0.0001612095216296642
-0.00015294236667429682
-0.0001364080567635621
-0.0001336523384451063
-0.0001391637750820179
-0.0001336523384451063
-0.00010885087357900426
-8.129369039444639e-05
-6.475938048371164e-05
-5.098078889143272e-05
-4.8225070572976926e-05
-3.995791561760957e-05
-2.6179324025330647e-05
-1.240073243305171e-05
1.3778591592272275e-06
9.64501411459459e-06
2.6179324025329308e-05
3.444647898069667e-05
3.169076066224089e-05
2.3423605706873515e-05
9.64501411459459e-06
1.3778591592272275e-06
-1.377859159228559e-06
-4.133577477684346e-06
-1.7912169069963278e-05
-4.8225070572976926e-05
-6.751509880216745e-05
-7.302653543907902e-05
-8.680512703135793e-05
-0.00010885087357900426
-0.0001336523384451063
-0.00014743093003738526
-0.00014743093003738526
-0.00014191949340047367
-0.00014467521171892948
-0.00015294236667429682
-0.0001612095216296642
-0.0001612095216296642
-0.00015294236667429682
-0.0001584538033112084
-0.00016947667658503157
-0.00018876670481422206
-0.00020254529640650095
-0.0002108124513618684
-0.0002108124513618684
-0.00012814090180819475
0.00010333943694209132
0.0004808728465705341
0.00092178777752346
0.001332389806973372
0.0016272516670481415
0.001720946089875638
0.0015252900892652771
0.001048550820172426
0.00037891126878767
-0.0003871784237430386
-0.0006710174105439848
-0.00047260569161516804
-0.0003954455786984061
-0.0003430869306477461
-0.0003045068741893651
-0.00027694969100480727
-0.0002549039444571609
-0.00023836963454642628
-0.00023010247959105888
-0.00022734676127260308
-0.00022734676127260308
-0.00021632388799877996
-0.00020254529640650095
-0.00019152242313267784
-0.00018876670481422206
-0.00018876670481422206
-0.0001777438315403989
-0.0001612095216296642
-0.000150186648355841
-0.000150186648355841
-0.00015294236667429682
-0.00014743093003738526
-0.0001336523384451063
-0.0001198737468528274
-0.00011436231021591582
-0.0001198737468528274
-0.0001198737468528274
-0.00010333943694209268
-8.956084534981374e-05
-8.129369039444639e-05
-8.129369039444639e-05
-7.57822537575348e-05
-5.9247943846800084e-05
-3.720219729915378e-05
-1.7912169069963278e-05
-9.64501411459592e-06
6.8892957961388014e-06
3.169076066224089e-05
6.200366216525454e-05
7.853797207598924e-05
8.404940871290084e-05
8.129369039444505e-05
7.853797207598924e-05
8.404940871290084e-05
7.853797207598924e-05
6.475938048371032e-05
4.82250705729756e-05
3.720219729915245e-05
3.720219729915245e-05
3.720219729915245e-05
1.7912169069961946e-05
-1.240073243305171e-05
-3.995791561760957e-05
-5.3736507209888505e-05
-6.475938048371164e-05
-8.129369039444639e-05
-0.00010609515526054846
-0.00012814090180819475
-0.0001336523384451063
-0.0001364080567635621
-0.00014467521171892948
-0.000150186648355841
-0.0001612095216296642
-0.0001612095216296642
-0.00015569808499275262
-0.00014743093003738526
-0.00014743093003738526
-0.00014743093003738526
-0.0001336523384451063
-0.00011436231021591582
-7.57822537575348e-05
-5.9247943846800084e-05
-3.995791561760957e-05
-2.342360570687485e-05
-1.240073243305171e-05
-9.64501411459592e-06
-1.377859159228559e-06
1.2400732433050376e-05
3.444647898069667e-05
4.546935225451981e-05
4.546935225451981e-05
3.444647898069667e-05
2.3423605706873515e-05
2.3423605706873515e-05
2.066788738841773e-05
9.64501411459459e-06
-1.377859159228559e-06
-2.8935042343786426e-05
-4.5469352254521147e-05
-4.8225070572976926e-05
-5.9247943846800084e-05
-8.404940871290214e-05
-0.00011436231021591582
-0.00012538518348973897
-0.00012538518348973897
-0.00012538518348973897
-0.00013089662012665053
-0.00014191949340047367
-0.00014743093003738526
-0.00014467521171892948
-0.00014191949340047367
-0.00014743093003738526
-0.0001584538033112084
-0.00016947667658503157
-0.00017498811322194308
-0.00018049954985885472
-0.00019152242313267784
-0.00016672095826657574
-3.4446478980697995e-05
0.0002549039444571596
0.0006407045090409697
0.0010265050736247801
0.0013544355535210185
0.0015528472724498353
0.0015500915541313794
0.0012359396658274198
0.000687551720454718
-4.5469352254521147e-05
-0.0005966130159456783
-0.0006269259174486923
-0.0005056743114366376
-0.00041749132524605234
-0.0003596212405584808
-0.0003155297474631883
-0.00027419397268635144
-0.00023836963454642628
-0.00022459104295414727
-0.0002190796063172357
-0.0002218353246356915
-0.0002218353246356915
-0.00020530101472495681
-0.00018876670481422206
-0.00018049954985885472
-0.00018049954985885472
-0.00018049954985885472
-0.00016947667658503157
-0.00015569808499275262
-0.00014743093003738526
-0.00014743093003738526
-0.0001364080567635621
-0.0001226294651712832
-0.0001198737468528274
-0.0001198737468528274
-0.0001226294651712832
-0.00011436231021591582
-0.00010058371862363688
-9.231656366826955e-05
-8.956084534981374e-05
-9.231656366826955e-05
-8.680512703135793e-05
-6.751509880216745e-05
-4.8225070572976926e-05
-3.720219729915378e-05
-2.8935042343786426e-05
-1.240073243305171e-05
1.2400732433050376e-05
3.9957915617608246e-05
5.649222552834297e-05
6.200366216525454e-05
5.9247943846798756e-05
6.475938048371032e-05
6.751509880216611e-05
6.200366216525454e-05
4.82250705729756e-05
3.720219729915245e-05
3.720219729915245e-05
3.720219729915245e-05
2.8935042343785094e-05
9.64501411459459e-06
-1.240073243305171e-05
-2.8935042343786426e-05
-3.720219729915378e-05
-5.3736507209888505e-05
-7.302653543907902e-05
-9.507228198672531e-05
-0.00010609515526054846
-0.00010885087357900426
-0.00011436231021591582
-0.00012538518348973897
-0.0001364080567635621
-0.00014467521171892948
-0.0001364080567635621
-0.0001336523384451063
-0.0001364080567635621
-0.0001391637750820179
-0.00014467521171892948
-0.00013089662012665053
-0.0001198737468528274
-0.00011160659189746003
-0.00010333943694209268
-9.231656366826955e-05
-6.751509880216745e-05
-3.995791561760957e-05
-2.8935042343786426e-05
-2.8935042343786426e-05
-3.169076066224221e-05
-1.5156450751507488e-05
1.2400732433050376e-05
2.8935042343785094e-05
3.444647898069667e-05
2.6179324025329308e-05
2.6179324025329308e-05
2.8935042343785094e-05
2.3423605706873515e-05
9.64501411459459e-06
-6.889295796140132e-06
-2.6179324025330647e-05
-4.2713633936065354e-05
-5.9247943846800084e-05
-7.85379720759906e-05
-0.00010333943694209268
-0.0001171180285343716
-0.0001198737468528274
-0.00012814090180819475
-0.0001391637750820179
-0.00014743093003738526
-0.00014191949340047367
-0.0001364080567635621
-0.0001364080567635621
-0.00014467521171892948
-0.00015294236667429682
-0.00015294236667429682
-0.00015294236667429682
-0.0001612095216296642
-0.00018049954985885472
-0.0001997895780880452
-0.00015294236667429682
9.64501411459459e-06
0.000301751155870908
0.0006903074387731741
0.0010953980315861747
0.001453641412985427
0.001660320286869611
0.0015914273289082165
0.0011725581445029367
0.0005332314946211942
-0.00023285819790951464
-0.000668261692225529
-0.0006103916075379574
-0.00048638428320744705
-0.00040646845197222917
-0.0003596212405584808
-0.00030726259250782084
-0.0002549039444571609
-0.00022734676127260308
-0.00022459104295414727
-0.00022734676127260308
-0.00021632388799877996
-0.0001997895780880452
-0.00019152242313267784
-0.00019152242313267784
-0.00019152242313267784
-0.00018325526817731047
-0.00016396523994811996
-0.00015294236667429682
-0.000150186648355841
-0.000150186648355841
-0.00014467521171892948
-0.0001364080567635621
-0.0001226294651712832
-0.0001198737468528274
-0.0001198737468528274
-0.0001171180285343716
-0.00010609515526054846
-9.231656366826955e-05
-8.956084534981374e-05
-8.956084534981374e-05
-8.680512703135793e-05
-7.85379720759906e-05
-6.200366216525588e-05
-5.098078889143272e-05
-4.5469352254521147e-05
-3.4446478980697995e-05
-1.240073243305171e-05
4.271363393606403e-05
5.9247943846798756e-05
6.751509880216611e-05
8.68051270313566e-05
0.00010885087357900291
0.00012262946517128183
0.0001253851834897376
0.00012262946517128183
0.00011987374685282605
0.0001253851834897376
0.00012262946517128183
0.00010885087357900291
8.404940871290084e-05
5.9247943846798756e-05
4.271363393606403e-05
2.6179324025329308e-05
4.133577477683014e-06
-2.6179324025330647e-05
-4.8225070572976926e-05
-5.098078889143272e-05
-5.6492225528344285e-05
-6.751509880216745e-05
-8.680512703135793e-05
-0.00010609515526054846
-0.00011160659189746003
-0.00010609515526054846
-0.00011436231021591582
-0.00012538518348973897
-0.00013089662012665053
-0.00013089662012665053
-0.0001226294651712832
-0.0001198737468528274
-0.0001198737468528274
-0.0001171180285343716
-0.00010609515526054846
-8.956084534981374e-05
-7.027081712062322e-05
-5.9247943846800084e-05
-6.200366216525588e-05
-6.200366216525588e-05
-4.8225070572976926e-05
-3.169076066224221e-05
-1.5156450751507488e-05
1.3778591592272275e-06
6.8892957961388014e-06
1.2400732433050376e-05
1.5156450751506162e-05
1.2400732433050376e-05
-4.133577477684346e-06
-2.342360570687485e-05
-2.6179324025330647e-05
-2.342360570687485e-05
-3.720219729915378e-05
-5.9247943846800084e-05
-8.404940871290214e-05
-0.00010058371862363688
-0.00011160659189746003
-0.0001226294651712832
-0.0001336523384451063
-0.00014467521171892948
-0.000150186648355841
-0.00014467521171892948
-0.00014467521171892948
-0.00014743093003738526
-0.00015569808499275262
-0.0001612095216296642
-0.0001584538033112084
-0.00015294236667429682
-0.00018049954985885472
-0.00019152242313267784
-0.00018049954985885472
-0.00010885087357900426
5.373650720988717e-05
0.00031001831082627527
0.0006737731288624392
0.0011009094682230861
0.0014508856946669714
0.0016244959487296858
0.0014867100328068963
0.0010209936369878683
0.00037891126878767
-0.000370644113832304
-0.0007343989318684678
-0.0006517273823147941
-0.0005277200579842838
-0.00044504850843061025
-0.0003651326771953924
-0.00030726259250782084
-0.00027143825436789566
-0.00025765966277561676
-0.00024939250782024937
-0.00023285819790951464
-0.0002190796063172357
-0.0002080567330434125
-0.00020254529640650095
-0.00019703385976958942
-0.00018325526817731047
-0.0001612095216296642
-0.000150186648355841
-0.000150186648355841
-0.00014743093003738526
-0.0001364080567635621
-0.0001198737468528274
-0.00011160659189746003
-0.00010885087357900426
-0.00010885087357900426
-9.231656366826955e-05
-7.302653543907902e-05
-6.200366216525588e-05
-5.9247943846800084e-05
-6.200366216525588e-05
-5.098078889143272e-05
-2.8935042343786426e-05
-9.64501411459592e-06
4.133577477683014e-06
1.7912169069961946e-05
3.720219729915245e-05
7.02708171206219e-05
0.00010885087357900291
0.00014743093003738393
0.00017498811322194178
0.00019978957808804387
0.00024388107118333642
0.00027970540932326175
0.00029623971923399637
0.0002989954375524522
0.00029623971923399637
0.0002989954375524522
0.00029623971923399637
0.0002824611276417174
0.0002549039444571596
0.0002218353246356902
0.00019427814145113231
0.00016672095826657444
0.00013916377508201656
0.00010333943694209132
6.475938048371032e-05
2.3423605706873515e-05
1.2400732433050376e-05
-6.889295796140132e-06
-3.4446478980697995e-05
-5.098078889143272e-05
-5.6492225528344285e-05
-6.475938048371164e-05
-7.85379720759906e-05
-9.507228198672531e-05
-0.00010885087357900426
-0.00010885087357900426
-0.00010885087357900426
-0.00011436231021591582
-0.00012538518348973897
-0.0001364080567635621
-0.00012538518348973897
-0.00010609515526054846
-9.78280003051811e-05
-9.231656366826955e-05
-8.956084534981374e-05
-7.85379720759906e-05
-7.302653543907902e-05
-6.475938048371164e-05
-5.6492225528344285e-05
-3.995791561760957e-05
-1.7912169069963278e-05
4.133577477683014e-06
9.64501411459459e-06
4.133577477683014e-06
-9.64501411459592e-06
-2.066788738841907e-05
-2.342360570687485e-05
-2.066788738841907e-05
-2.6179324025330647e-05
-5.098078889143272e-05
-7.302653543907902e-05
-7.85379720759906e-05
-9.231656366826955e-05
-0.00011436231021591582
-0.0001364080567635621
-0.00014743093003738526
-0.00014467521171892948
-0.0001364080567635621
-0.0001391637750820179
-0.00014743093003738526
-0.0001584538033112084
-0.0001584538033112084
-0.00015294236667429682
-0.00014743093003738526
-0.0001584538033112084
-0.0001777438315403989
-0.00018601098649576628
-0.00018876670481422206
-0.00018876670481422206
-0.00012538518348973897
3.444647898069667e-05
0.0003072625925078196
0.0007068417486839086
0.0011587795529106576
0.0015225343709468217
0.0017044117799649037
0.0015748930189974813
0.0011091766231784534
0.0004615828183413437
-0.0003127740291447324
-0.0007068417486839102
-0.000629681635767148
-0.0004974071564812702
-0.0003568655222400251
-0.0003155297474631883
-0.0002824611276417188
-0.00024939250782024937
-0.00022734676127260308
-0.0002190796063172357
-0.00021356816968032413
-0.00021632388799877996
-0.00020530101472495681
-0.00019152242313267784
-0.0001777438315403989
-0.00016947667658503157
-0.00016947667658503157
-0.0001612095216296642
-0.00014467521171892948
-0.00012814090180819475
-0.0001226294651712832
-0.00012814090180819475
-0.00012538518348973897
-0.00010885087357900426
-9.231656366826955e-05
-8.404940871290214e-05
-8.404940871290214e-05
-8.129369039444639e-05
-7.027081712062322e-05
-5.3736507209888505e-05
-3.995791561760957e-05
-3.720219729915378e-05
-3.169076066224221e-05
-1.240073243305171e-05
1.5156450751506162e-05
3.9957915617608246e-05
6.475938048371032e-05
8.68051270313566e-05
0.00012262946517128183
0.0001694766765850302
0.00020805673304341124
0.00023285819790951333
0.00024388107118333642
0.0002549039444571596
0.00027143825436789435
0.0002769496910048059
0.00027143825436789435
0.00025214822613870384
0.00023010247959105753
0.00021632388799877858
0.0001970338597695881
0.00016672095826657444
0.00012814090180819342
9.23165636682682e-05
7.02708171206219e-05
5.373650720988717e-05
3.169076066224089e-05
6.8892957961388014e-06
-1.5156450751507488e-05
-2.8935042343786426e-05
-3.4446478980697995e-05
-4.8225070572976926e-05
-6.200366216525588e-05
-8.129369039444639e-05
-8.956084534981374e-05
-8.956084534981374e-05
-8.956084534981374e-05
-9.507228198672531e-05
-0.00010609515526054846
-0.00011160659189746003
-9.78280003051811e-05
-8.404940871290214e-05
-7.85379720759906e-05
-6.751509880216745e-05
-5.098078889143272e-05
-3.995791561760957e-05
-4.2713633936065354e-05
-4.8225070572976926e-05
-3.995791561760957e-05
-1.5156450751507488e-05
9.64501411459459e-06
2.066788738841773e-05
1.2400732433050376e-05
4.133577477683014e-06
4.133577477683014e-06
1.3778591592272275e-06
-4.133577477684346e-06
-1.5156450751507488e-05
-3.169076066224221e-05
-4.8225070572976926e-05
-5.9247943846800084e-05
-6.751509880216745e-05
-8.956084534981374e-05
-0.0001226294651712832
-0.0001391637750820179
-0.0001391637750820179
-0.00013089662012665053
-0.0001364080567635621
-0.000150186648355841
-0.00015569808499275262
-0.00015294236667429682
-0.00014743093003738526
-0.00015294236667429682
-0.0001612095216296642
-0.00016947667658503157
-0.0001777438315403989
-0.00018325526817731047
-0.00020254529640650095
-0.0002190796063172357
-0.00016672095826657574
6.8892957961388014e-06
0.000315529747463187
0.0007426660868238338
0.0012028710460059502
0.0015914273289082165
0.001795350484473944
0.0016796103150988014
0.0012138939192797731
0.0005497658045319286
-0.0002604153810940725
-0.0006985745937285427
-0.0006214144808117806
-0.000500162874799726
-0.0004285141985198755
-0.00037339983215075977
-0.0003293083390554673
-0.00027970540932326305
-0.00024939250782024937
-0.00023561391622797047
-0.00023836963454642628
-0.00023561391622797047
-0.0002190796063172357
-0.00020254529640650095
-0.00019427814145113364
-0.00019152242313267784
-0.00018876670481422206
-0.00017498811322194308
-0.0001584538033112084
-0.00015294236667429682
-0.000150186648355841
-0.0001364080567635621
-0.0001226294651712832
-0.00011160659189746003
-0.00010885087357900426
-0.00011160659189746003
-0.00010333943694209268
-8.404940871290214e-05
-7.302653543907902e-05
-6.751509880216745e-05
-7.027081712062322e-05
-5.9247943846800084e-05
-4.2713633936065354e-05
-2.342360570687485e-05
-9.64501411459592e-06
6.8892957961388014e-06
2.6179324025329308e-05
5.9247943846798756e-05
9.507228198672396e-05
0.0001253851834897376
0.00014467521171892812
0.00016120952162966288
0.00018049954985885336
0.00020254529640649968
0.00020805673304341124
0.00020254529640649968
0.00019427814145113231
0.00018876670481422076
0.0001832552681773092
0.0001694766765850302
0.00014191949340047234
0.00010609515526054714
7.578225375753347e-05
5.098078889143139e-05
2.6179324025329308e-05
-1.377859159228559e-06
-2.8935042343786426e-05
-5.098078889143272e-05
-5.9247943846800084e-05
-6.751509880216745e-05
-7.85379720759906e-05
-9.78280003051811e-05
-0.00010885087357900426
-0.00010885087357900426
-0.00010885087357900426
-0.00010885087357900426
-0.0001171180285343716
-0.00012538518348973897
-0.0001226294651712832
-0.00011436231021591582
-0.00010609515526054846
-0.00010058371862363688
-9.507228198672531e-05
-8.129369039444639e-05
-5.6492225528344285e-05
-3.995791561760957e-05
-3.995791561760957e-05
-5.098078889143272e-05
-4.5469352254521147e-05
-1.7912169069963278e-05
6.8892957961388014e-06
2.066788738841773e-05
2.066788738841773e-05
1.5156450751506162e-05
1.7912169069961946e-05
2.066788738841773e-05
1.2400732433050376e-05
-4.133577477684346e-06
-2.066788738841907e-05
-3.169076066224221e-05
-5.3736507209888505e-05
-7.302653543907902e-05
-9.231656366826955e-05
-0.00010885087357900426
-0.0001226294651712832
-0.00012814090180819475
-0.0001336523384451063
-0.00014467521171892948
-0.00014467521171892948
-0.0001364080567635621
-0.0001364080567635621
-0.00014191949340047367
-0.00015294236667429682
-0.0001584538033112084
-0.00015569808499275262
-0.00016396523994811996
-0.00018601098649576628
-0.00021356816968032413
-0.00023836963454642628
-0.00019427814145113364
-1.7912169069963278e-05
0.00029623971923399637
0.0007399103685053779
0.001224916792553597
0.0016548088502326991
0.001891800625619897
0.0018036176394293122
0.0013461683985656512
0.0006903074387731741
-0.0001198737468528274
-0.0006351930724040594
-0.0006048801709010458
-0.0004974071564812702
-0.00043402563515678713
-0.00037615555046921565
-0.0003210411841000998
-0.00027694969100480727
-0.0002521482261387052
-0.0002521482261387052
-0.00024939250782024937
-0.00023285819790951464
-0.0002190796063172357
-0.00021632388799877996
-0.00021356816968032413
-0.00020530101472495681
-0.00018601098649576628
-0.00017223239490348733
-0.00016396523994811996
-0.00016396523994811996
-0.00016396523994811996
-0.000150186648355841
-0.00013089662012665053
-0.00012538518348973897
-0.00013089662012665053
-0.00012814090180819475
-0.00011436231021591582
-9.507228198672531e-05
-9.231656366826955e-05
-8.956084534981374e-05
-8.956084534981374e-05
-8.129369039444639e-05
-6.751509880216745e-05
-5.3736507209888505e-05
-4.8225070572976926e-05
-4.2713633936065354e-05
-2.342360570687485e-05
9.64501411459459e-06
6.200366216525454e-05
8.129369039444505e-05
0.00010058371862363556
0.0001253851834897376
0.00014191949340047234
0.00015018664835583973
0.00014467521171892812
0.00013640805676356078
0.00014191949340047234
0.00014743093003738393
0.00013916377508201656
0.00011987374685282605
9.507228198672396e-05
7.578225375753347e-05
5.649222552834297e-05
2.8935042343785094e-05
-4.133577477684346e-06
-3.720219729915378e-05
-5.3736507209888505e-05
-6.475938048371164e-05
-7.302653543907902e-05
-8.956084534981374e-05
-0.00010885087357900426
-0.0001171180285343716
-0.0001198737468528274
-0.0001198737468528274
-0.00012538518348973897
-0.0001336523384451063
-0.0001336523384451063
-0.0001226294651712832
-0.00011436231021591582
-0.00011160659189746003
-0.00010885087357900426
-0.00010058371862363688
-7.57822537575348e-05
-5.098078889143272e-05
-3.4446478980697995e-05
-2.8935042343786426e-05
-2.8935042343786426e-05
-2.066788738841907e-05
-6.889295796140132e-06
1.5156450751506162e-05
2.6179324025329308e-05
3.169076066224089e-05
4.271363393606403e-05
4.546935225451981e-05
4.271363393606403e-05
3.720219729915245e-05
2.066788738841773e-05
9.64501411459459e-06
6.8892957961388014e-06
4.133577477683014e-06
-1.5156450751507488e-05
-3.995791561760957e-05
-5.3736507209888505e-05
-6.200366216525588e-05
-8.129369039444639e-05
-0.00010058371862363688
-0.0001171180285343716
-0.00012538518348973897
-0.00012538518348973897
-0.0001226294651712832
-0.00012814090180819475
-0.0001391637750820179
-0.000150186648355841
-0.00014467521171892948
-0.0001391637750820179
-0.00014191949340047367
-0.0001612095216296642
-0.00020254529640650095
-0.00022734676127260308
-0.00019152242313267784
-3.995791561760957e-05
0.0002686825360494386
0.0007316432135500107
0.0012414511024643313
0.0016768545967803456
0.0019276249637598223
0.0018669991607537949
0.0014426185397116034
0.0008143147631036844
-4.133577477684346e-06
-0.0005938572976272227
-0.000615903044174869
-0.0005084300297550932
-0.0004285141985198755
-0.00036788839551384826
-0.00032379690241855563
-0.00029348400091554195
-0.00027143825436789566
-0.0002521482261387052
-0.00023561391622797047
-0.00023010247959105888
-0.00022734676127260308
-0.00022459104295414727
-0.0002108124513618684
-0.00019427814145113364
-0.00018325526817731047
-0.00018049954985885472
-0.0001777438315403989
-0.00016672095826657574
-0.00015294236667429682
-0.00014191949340047367
-0.0001364080567635621
-0.0001364080567635621
-0.0001336523384451063
-0.0001198737468528274
-0.00010609515526054846
-0.00010333943694209268
-0.00010333943694209268
-0.00010333943694209268
-8.680512703135793e-05
-6.751509880216745e-05
-5.9247943846800084e-05
-5.9247943846800084e-05
-5.3736507209888505e-05
-3.4446478980697995e-05
-1.240073243305171e-05
6.8892957961388014e-06
2.6179324025329308e-05
4.546935225451981e-05
7.578225375753347e-05
0.00010609515526054714
0.00012262946517128183
0.00012814090180819342
0.0001253851834897376
0.00012814090180819342
0.00013089662012664922
0.00013089662012664922
0.00012262946517128183
0.00010609515526054714
9.507228198672396e-05
8.68051270313566e-05
7.02708171206219e-05
4.271363393606403e-05
9.64501411459459e-06
-2.066788738841907e-05
-5.6492225528344285e-05
-7.57822537575348e-05
-9.78280003051811e-05
-0.0001198737468528274
-0.0001226294651712832
-0.00012538518348973897
-0.00013089662012665053
-0.00014191949340047367
-0.00014743093003738526
-0.00014743093003738526
-0.0001391637750820179
-0.0001364080567635621
-0.0001364080567635621
-0.0001391637750820179
-0.00012814090180819475
-0.00010885087357900426
-8.404940871290214e-05
-7.302653543907902e-05
-6.475938048371164e-05
-4.8225070572976926e-05
-3.4446478980697995e-05
-2.342360570687485e-05
-2.066788738841907e-05
-1.240073243305171e-05
6.8892957961388014e-06
3.169076066224089e-05
4.546935225451981e-05
4.271363393606403e-05
2.8935042343785094e-05
1.7912169069961946e-05
1.5156450751506162e-05
1.2400732433050376e-05
4.133577477683014e-06
-1.240073243305171e-05
-3.4446478980697995e-05
-5.098078889143272e-05
-5.9247943846800084e-05
-7.57822537575348e-05
-0.00010333943694209268
-0.00013089662012665053
-0.0001391637750820179
-0.0001336523384451063
-0.00013089662012665053
-0.0001391637750820179
-0.000150186648355841
-0.000150186648355841
-0.00014467521171892948
-0.00014467521171892948
-0.00015294236667429682
-0.00016672095826657574
-0.0001777438315403989
-0.00018325526817731047
-0.00019427814145113364
-0.00022459104295414727
-0.0002080567330434125
-5.9247943846800084e-05
0.0002576596627756154
0.0006930631570916297
0.0011587795529106576
0.001558358709086747
0.0018036176394293122
0.0017870833295185766
0.001423328511482413
0.0008280933546959632
3.720219729915245e-05
-0.0005993687342641343
-0.0006489716639963384
-0.0005139414663920051
-0.00037339983215075977
-0.0003320640573739229
-0.00028797256427863044
-0.0002521482261387052
-0.00023561391622797047
-0.00023561391622797047
-0.00023836963454642628
-0.00023010247959105888
-0.0002108124513618684
-0.00019703385976958942
-0.00019703385976958942
-0.00019427814145113364
-0.00018876670481422206
-0.00017498811322194308
-0.0001584538033112084
-0.000150186648355841
-0.00015294236667429682
-0.000150186648355841
-0.0001336523384451063
-0.0001198737468528274
-0.00011160659189746003
-0.00011436231021591582
-0.0001171180285343716
-0.00010333943694209268
-8.680512703135793e-05
-7.85379720759906e-05
-7.57822537575348e-05
-7.302653543907902e-05
-5.9247943846800084e-05
-3.720219729915378e-05
-1.7912169069963278e-05
-6.889295796140132e-06
4.133577477683014e-06
2.6179324025329308e-05
6.475938048371032e-05
9.23165636682682e-05
0.00010885087357900291
0.00011436231021591448
0.00011987374685282605
0.00013089662012664922
0.00013365233844510492
0.0001253851834897376
0.00011160659189745871
9.782800030517979e-05
0.00010058371862363556
0.00010058371862363556
8.956084534981241e-05
6.200366216525454e-05
3.169076066224089e-05
1.2400732433050376e-05
-4.133577477684346e-06
-2.6179324025330647e-05
-5.6492225528344285e-05
-8.404940871290214e-05
-0.00010058371862363688
-0.00010058371862363688
-0.00010885087357900426
-0.00012814090180819475
-0.00014191949340047367
-0.00014743093003738526
-0.0001391637750820179
-0.0001336523384451063
-0.0001364080567635621
-0.00014191949340047367
-0.0001391637750820179
-0.00012538518348973897
-0.00010609515526054846
-9.231656366826955e-05
-6.751509880216745e-05
-3.720219729915378e-05
-1.240073243305171e-05
-4.133577477684346e-06
-9.64501411459592e-06
-9.64501411459592e-06
1.2400732433050376e-05
3.9957915617608246e-05
5.9247943846798756e-05
5.649222552834297e-05
4.546935225451981e-05
4.271363393606403e-05
4.546935225451981e-05
3.9957915617608246e-05
2.066788738841773e-05
1.3778591592272275e-06
-1.377859159228559e-06
-9.64501411459592e-06
-2.342360570687485e-05
-3.995791561760957e-05
-6.751509880216745e-05
-9.231656366826955e-05
-0.00010058371862363688
-0.00010333943694209268
-0.00011436231021591582
-0.0001336523384451063
-0.00014191949340047367
-0.0001391637750820179
-0.00012814090180819475
-0.00012814090180819475
-0.00014191949340047367
-0.00015569808499275262
-0.0001584538033112084
-0.00015569808499275262
-0.00016396523994811996
-0.00018876670481422206
-0.00021356816968032413
-0.0001777438315403989
-2.342360570687485e-05
0.0002686825360494386
0.0006517273823147929
0.0010430393835355147
0.0013985270466163114
0.001630007385366597
0.0016410302586404204
0.0013268783703364606
0.000767467551689936
3.720219729915245e-05
-0.0005635443961242091
-0.0006214144808117806
-0.0005084300297550932
-0.00043402563515678713
-0.00037615555046921565
-0.0003210411841000998
-0.0002686825360494398
-0.00023836963454642628
-0.00023561391622797047
-0.00023561391622797047
-0.00022459104295414727
-0.0002080567330434125
-0.00019703385976958942
-0.00019703385976958942
-0.00019703385976958942
-0.00018876670481422206
-0.00016947667658503157
-0.00015569808499275262
-0.00015569808499275262
-0.0001584538033112084
-0.0001364080567635621
-0.00012538518348973897
-0.00012538518348973897
-0.00012814090180819475
-0.00012538518348973897
-0.00010885087357900426
-8.956084534981374e-05
-8.956084534981374e-05
-9.78280003051811e-05
-9.231656366826955e-05
-7.027081712062322e-05
-5.6492225528344285e-05
-4.5469352254521147e-05
-4.2713633936065354e-05
-3.995791561760957e-05
-1.7912169069963278e-05
1.2400732433050376e-05
3.9957915617608246e-05
5.373650720988717e-05
5.9247943846798756e-05
7.853797207598924e-05
9.782800030517979e-05
0.00010333943694209132
8.956084534981241e-05
7.578225375753347e-05
6.475938048371032e-05
6.751509880216611e-05
6.475938048371032e-05
4.82250705729756e-05
2.8935042343785094e-05
1.5156450751506162e-05
9.64501411459459e-06
-1.377859159228559e-06
-2.6179324025330647e-05
-5.3736507209888505e-05
-7.302653543907902e-05
-8.129369039444639e-05
-8.956084534981374e-05
-0.00010058371862363688
-0.0001198737468528274
-0.00013089662012665053
-0.00012814090180819475
-0.00012538518348973897
-0.00013089662012665053
-0.0001391637750820179
-0.00014467521171892948
-0.00014191949340047367
-0.00012814090180819475
-0.0001171180285343716
-0.0001171180285343716
-0.0001171180285343716
-0.00010058371862363688
-7.302653543907902e-05
-4.5469352254521147e-05
-2.8935042343786426e-05
-2.8935042343786426e-05
-2.6179324025330647e-05
-1.240073243305171e-05
6.8892957961388014e-06
2.066788738841773e-05
2.8935042343785094e-05
3.720219729915245e-05
4.546935225451981e-05
4.546935225451981e-05
4.271363393606403e-05
2.6179324025329308e-05
9.64501411459459e-06
1.3778591592272275e-06
-4.133577477684346e-06
-3.4446478980697995e-05
-5.9247943846800084e-05
-6.475938048371164e-05
-7.027081712062322e-05
-8.680512703135793e-05
-0.00010885087357900426
-0.00012538518348973897
-0.00012814090180819475
-0.0001226294651712832
-0.0001171180285343716
-0.00012538518348973897
-0.0001364080567635621
-0.00014191949340047367
-0.0001391637750820179
-0.0001364080567635621
-0.00014467521171892948
-0.00016672095826657574
-0.00018049954985885472
-0.00018601098649576628
-0.0001584538033112084
-5.098078889143272e-05
0.00018601098649576498
0.0005359872129396498
0.0009300549324788276
0.0012965654688334468
0.0015418243991760121
0.001580404455634393
0.0013103440604257258
0.0007867575799191265
8.956084534981241e-05
-0.0005277200579842838
-0.0006379487907225153
-0.0005304757763027395
-0.0004257584802014197
-0.0003458426489662019
-0.00029348400091554195
-0.0002549039444571609
-0.00023561391622797047
-0.00022459104295414727
-0.0002080567330434125
-0.00019427814145113364
-0.00018876670481422206
-0.00019427814145113364
-0.00019152242313267784
-0.0001777438315403989
-0.0001612095216296642
-0.00015569808499275262
-0.00015294236667429682
-0.00015569808499275262
-0.00014191949340047367
-0.00012814090180819475
-0.0001198737468528274
-0.0001226294651712832
-0.00012538518348973897
-0.00011436231021591582
-0.00010058371862363688
-9.231656366826955e-05
-9.507228198672531e-05
-0.00010058371862363688
-9.231656366826955e-05
-7.57822537575348e-05
-6.475938048371164e-05
-6.475938048371164e-05
-6.475938048371164e-05
-5.3736507209888505e-05
-3.4446478980697995e-05
-1.5156450751507488e-05
-1.377859159228559e-06
1.7912169069961946e-05
4.271363393606403e-05
6.475938048371032e-05
7.30265354390777e-05
6.475938048371032e-05
6.475938048371032e-05
7.30265354390777e-05
7.853797207598924e-05
7.30265354390777e-05
6.200366216525454e-05
4.82250705729756e-05
4.546935225451981e-05
4.546935225451981e-05
3.444647898069667e-05
9.64501411459459e-06
-1.7912169069963278e-05
-3.4446478980697995e-05
-4.2713633936065354e-05
-5.098078889143272e-05
-6.751509880216745e-05
-8.680512703135793e-05
-9.231656366826955e-05
-8.680512703135793e-05
-8.956084534981374e-05
-0.00010058371862363688
-0.00011436231021591582
-0.0001198737468528274
-0.00011160659189746003
-0.00010058371862363688
-0.00010058371862363688
-0.00010609515526054846
-0.00010885087357900426
-9.231656366826955e-05
-7.57822537575348e-05
-6.475938048371164e-05
-5.3736507209888505e-05
-4.2713633936065354e-05
-2.6179324025330647e-05
-1.240073243305171e-05
-6.889295796140132e-06
-4.133577477684346e-06
1.3778591592272275e-06
2.3423605706873515e-05
4.82250705729756e-05
5.9247943846798756e-05
5.649222552834297e-05
4.271363393606403e-05
3.444647898069667e-05
3.444647898069667e-05
3.169076066224089e-05
1.7912169069961946e-05
-1.377859159228559e-06
-2.6179324025330647e-05
-3.4446478980697995e-05
-3.995791561760957e-05
-5.6492225528344285e-05
-8.680512703135793e-05
-0.00011160659189746003
-0.00011160659189746003
-0.00010609515526054846
-0.00010885087357900426
-0.0001198737468528274
-0.0001336523384451063
-0.00012814090180819475
-0.0001198737468528274
-0.0001198737468528274
-0.0001336523384451063
-0.00014467521171892948
-0.00014743093003738526
-0.00015569808499275262
-0.0001584538033112084
-9.231656366826955e-05
9.507228198672396e-05
0.0004064684519722279
0.0008115590447852286
0.0012194053559166852
0.0015280458075837332
0.001657564568551155
0.0014839543144884403
0.0009906807354848547
0.00031001831082627527
-0.0004312699168383313
-0.0006985745937285427
-0.0005800787060349438
-0.00045331566338597764
-0.00037339983215075977
-0.00032379690241855563
-0.00028797256427863044
-0.0002466367895017936
-0.00021632388799877996
-0.00020530101472495681
-0.00020530101472495681
-0.0002080567330434125
-0.00019427814145113364
-0.00017223239490348733
-0.00015569808499275262
-0.00015569808499275262
-0.0001584538033112084
-0.000150186648355841
-0.0001336523384451063
-0.0001198737468528274
-0.0001171180285343716
-0.0001171180285343716
-0.00010885087357900426
-9.507228198672531e-05
-8.404940871290214e-05
-7.85379720759906e-05
-8.129369039444639e-05
-7.85379720759906e-05
-6.200366216525588e-05
-4.5469352254521147e-05
-3.995791561760957e-05
-3.995791561760957e-05
-3.4446478980697995e-05
-1.7912169069963278e-05
4.133577477683014e-06
2.6179324025329308e-05
4.271363393606403e-05
5.649222552834297e-05
8.68051270313566e-05
0.00013089662012664922
0.00016672095826657444
0.00019152242313267648
0.00020254529640649968
0.0002190796063172344
0.00023561391622796914
0.0002493925078202481
0.00024388107118333642
0.00022734676127260172
0.0002135681696803228
0.00020805673304341124
0.00019427814145113231
0.00016672095826657444
0.0001253851834897376
8.956084534981241e-05
7.30265354390777e-05
3.169076066224089e-05
4.133577477683014e-06
-1.5156450751507488e-05
-2.342360570687485e-05
-3.169076066224221e-05
-4.2713633936065354e-05
-6.475938048371164e-05
-8.680512703135793e-05
-8.956084534981374e-05
-8.680512703135793e-05
-8.956084534981374e-05
-0.00010333943694209268
-0.0001198737468528274
-0.0001226294651712832
-0.00011436231021591582
-0.00010609515526054846
-0.00010609515526054846
-0.00010333943694209268
-9.507228198672531e-05
-7.302653543907902e-05
-5.3736507209888505e-05
-5.3736507209888505e-05
-6.200366216525588e-05
-5.9247943846800084e-05
-3.720219729915378e-05
-1.240073243305171e-05
4.133577477683014e-06
1.2400732433050376e-05
9.64501411459459e-06
1.2400732433050376e-05
1.7912169069961946e-05
1.5156450751506162e-05
-1.377859159228559e-06
-1.7912169069963278e-05
-1.7912169069963278e-05
-2.6179324025330647e-05
-3.995791561760957e-05
-5.9247943846800084e-05
-8.404940871290214e-05
-0.00010058371862363688
-0.00010333943694209268
-0.00010609515526054846
-0.0001171180285343716
-0.00012538518348973897
-0.00013089662012665053
-0.0001226294651712832
-0.0001171180285343716
-0.00012538518348973897
-0.0001364080567635621
-0.00014467521171892948
-0.0001391637750820179
-0.0001364080567635621
-0.00014743093003738526
-0.0001584538033112084
-0.00015294236667429682
-6.475938048371164e-05
0.0001253851834897376
0.0003982012970168605
0.0007784904249637591
0.0011946038910505827
0.001530801525902189
0.0016823660334172573
0.0015060000610360867
0.0010017036087586776
0.000315529747463187
-0.0004312699168383313
-0.0007068417486839102
-0.0005855901426718552
-0.0003954455786984061
-0.0003375754940108345
-0.00027970540932326305
-0.00023285819790951464
-0.0002080567330434125
-0.0002080567330434125
-0.0002108124513618684
-0.00018876670481422206
-0.00017223239490348733
-0.00016396523994811996
-0.00016396523994811996
-0.0001612095216296642
-0.00014467521171892948
-0.00012814090180819475
-0.0001171180285343716
-0.0001171180285343716
-0.0001171180285343716
-0.00010609515526054846
-8.680512703135793e-05
-7.302653543907902e-05
-7.57822537575348e-05
-7.57822537575348e-05
-6.475938048371164e-05
-4.2713633936065354e-05
-2.8935042343786426e-05
-2.6179324025330647e-05
-2.6179324025330647e-05
-1.7912169069963278e-05
6.8892957961388014e-06
3.169076066224089e-05
4.82250705729756e-05
6.200366216525454e-05
8.129369039444505e-05
0.00011987374685282605
0.00016672095826657444
0.00020530101472495543
0.00023561391622796914
0.000263171099412527
0.0002934840009155406
0.0003182854657816428
0.00032655262073701005
0.00032379690241855427
0.0003127740291447311
0.0003127740291447311
0.00031001831082627527
0.0002934840009155406
0.000263171099412527
0.00022734676127260172
0.0001970338597695881
0.0001694766765850302
0.00014467521171892812
0.00010885087357900291
7.30265354390777e-05
5.098078889143139e-05
4.546935225451981e-05
3.169076066224089e-05
1.2400732433050376e-05
-1.240073243305171e-05
-2.8935042343786426e-05
-3.169076066224221e-05
-3.4446478980697995e-05
-4.5469352254521147e-05
-6.200366216525588e-05
-7.57822537575348e-05
-7.85379720759906e-05
-7.302653543907902e-05
-7.57822537575348e-05
-8.680512703135793e-05
-7.57822537575348e-05
-5.3736507209888505e-05
-3.720219729915378e-05
-3.169076066224221e-05
-4.2713633936065354e-05
-4.2713633936065354e-05
-2.6179324025330647e-05
-4.133577477684346e-06
9.64501411459459e-06
2.066788738841773e-05
3.169076066224089e-05
3.9957915617608246e-05
4.271363393606403e-05
3.444647898069667e-05
1.5156450751506162e-05
4.133577477683014e-06
1.3778591592272275e-06
1.3778591592272275e-06
-1.7912169069963278e-05
-3.995791561760957e-05
-5.9247943846800084e-05
-7.302653543907902e-05
-8.680512703135793e-05
-0.00010058371862363688
-0.00011436231021591582
-0.0001226294651712832
-0.0001198737468528274
-0.00011436231021591582
-0.0001171180285343716
-0.0001226294651712832
-0.0001364080567635621
-0.0001364080567635621
-0.00012814090180819475
-0.0001336523384451063
-0.00014743093003738526
-0.00016672095826657574
-0.00018325526817731047
-0.00017223239490348733
-9.231656366826955e-05
8.956084534981241e-05
0.00038993414206149314
0.0008115590447852286
0.001271764003967345
0.0016272516670481415
0.0017760604562447539
0.0015748930189974813
0.0010540622568093376
0.00037615555046921414
-0.0003816669871061273
-0.0006792845654993521
-0.0005800787060349438
-0.00047536140993362393
-0.0003954455786984061
-0.00032379690241855563
-0.00027419397268635144
-0.0002521482261387052
-0.00023836963454642628
-0.00022459104295414727
-0.0002108124513618684
-0.00019703385976958942
-0.00019427814145113364
-0.00019427814145113364
-0.00018325526817731047
-0.00016672095826657574
-0.00015294236667429682
-0.000150186648355841
-0.00014743093003738526
-0.00014191949340047367
-0.00010885087357900426
-0.00010609515526054846
-0.00010609515526054846
-0.00010333943694209268
-8.956084534981374e-05
-7.302653543907902e-05
-6.751509880216745e-05
-6.475938048371164e-05
-6.475938048371164e-05
-4.8225070572976926e-05
-2.6179324025330647e-05
-1.5156450751507488e-05
-6.889295796140132e-06
-1.377859159228559e-06
2.066788738841773e-05
5.373650720988717e-05
8.404940871290084e-05
0.00010609515526054714
0.00012814090180819342
0.00015845380331120705
0.00019978957808804387
0.00023285819790951333
0.00024663678950179223
0.0002493925078202481
0.00025214822613870384
0.000263171099412527
0.00026592681773098274
0.00025214822613870384
0.00022734676127260172
0.00019978957808804387
0.00018049954985885336
0.00016396523994811866
0.00013089662012664922
8.956084534981241e-05
5.373650720988717e-05
3.720219729915245e-05
2.3423605706873515e-05
6.8892957961388014e-06
-1.7912169069963278e-05
-4.5469352254521147e-05
-5.6492225528344285e-05
-5.6492225528344285e-05
-6.200366216525588e-05
-7.85379720759906e-05
-9.507228198672531e-05
-0.00010058371862363688
-9.78280003051811e-05
-8.956084534981374e-05
-9.507228198672531e-05
-0.00010885087357900426
-0.00010885087357900426
-8.956084534981374e-05
-7.027081712062322e-05
-6.475938048371164e-05
-5.9247943846800084e-05
-5.6492225528344285e-05
-4.5469352254521147e-05
-2.8935042343786426e-05
-2.066788738841907e-05
-1.240073243305171e-05
-1.377859159228559e-06
2.3423605706873515e-05
3.9957915617608246e-05
3.720219729915245e-05
2.6179324025329308e-05
1.2400732433050376e-05
6.8892957961388014e-06
6.8892957961388014e-06
4.133577477683014e-06
-3.995791561760957e-05
-5.6492225528344285e-05
-5.6492225528344285e-05
-6.751509880216745e-05
-9.231656366826955e-05
-0.00011160659189746003
-0.0001198737468528274
-0.00011436231021591582
-0.00011160659189746003
-0.0001171180285343716
-0.00012814090180819475
-0.0001336523384451063
-0.00012538518348973897
-0.0001226294651712832
-0.00013089662012665053
-0.00014743093003738526
-0.00016672095826657574
-0.00017498811322194308
-0.00018601098649576628
-0.00018876670481422206
-0.0001171180285343716
8.404940871290084e-05
0.0004367813534752416
0.000908009185931181
0.0013819927367055766
0.0017374803997863729
0.0018725105973907065
0.001657564568551155
0.0011339780880445555
0.00043126991683832994
-0.0003568655222400251
-0.0006655059739070732
-0.0005580329594872974
-0.000447804226749066
-0.00037615555046921565
-0.0003293083390554673
-0.00029348400091554195
-0.00025765966277561676
-0.00022734676127260308
-0.0002108124513618684
-0.00020530101472495681
-0.00020530101472495681
-0.00020254529640650095
-0.00018876670481422206
-0.00017223239490348733
-0.0001612095216296642
-0.0001612095216296642
-0.0001584538033112084
-0.00014467521171892948
-0.00013089662012665053
-0.0001198737468528274
-0.0001198737468528274
-0.0001198737468528274
-0.00010885087357900426
-9.231656366826955e-05
-8.129369039444639e-05
-8.129369039444639e-05
-8.404940871290214e-05
-7.57822537575348e-05
-5.9247943846800084e-05
-4.5469352254521147e-05
-3.995791561760957e-05
-3.995791561760957e-05
-2.8935042343786426e-05
-9.64501411459592e-06
1.2400732433050376e-05
2.8935042343785094e-05
3.9957915617608246e-05
9.23165636682682e-05
0.0001253851834897376
0.00015018664835583973
0.00016120952162966288
0.00016672095826657444
0.00018049954985885336
0.0001970338597695881
0.00019978957808804387
0.00019152242313267648
0.00017774383154039756
0.0001694766765850302
0.00016396523994811866
0.00014467521171892812
0.00011436231021591448
7.578225375753347e-05
4.546935225451981e-05
2.3423605706873515e-05
6.8892957961388014e-06
-1.5156450751507488e-05
-3.995791561760957e-05
-5.9247943846800084e-05
-6.200366216525588e-05
-6.475938048371164e-05
-7.57822537575348e-05
-9.507228198672531e-05
-0.00010609515526054846
-0.00010058371862363688
-8.956084534981374e-05
-8.680512703135793e-05
-9.78280003051811e-05
-0.00010333943694209268
-8.956084534981374e-05
-7.027081712062322e-05
-5.9247943846800084e-05
-5.6492225528344285e-05
-4.8225070572976926e-05
-2.8935042343786426e-05
-9.64501411459592e-06
-1.377859159228559e-06
-1.377859159228559e-06
-4.133577477684346e-06
1.5156450751506162e-05
4.271363393606403e-05
6.200366216525454e-05
6.200366216525454e-05
4.82250705729756e-05
3.9957915617608246e-05
4.546935225451981e-05
4.546935225451981e-05
3.169076066224089e-05
1.2400732433050376e-05
-6.889295796140132e-06
-1.7912169069963278e-05
-2.342360570687485e-05
-3.995791561760957e-05
-7.027081712062322e-05
-9.78280003051811e-05
-0.00010609515526054846
-0.00010333943694209268
-0.00010333943694209268
-0.00011436231021591582
-0.00012538518348973897
-0.00012814090180819475
-0.0001226294651712832
-0.0001198737468528274
-0.00013089662012665053
-0.00014743093003738526
-0.00015569808499275262
-0.00016947667658503157
-0.00020254529640650095
-0.0002190796063172357
-0.00013089662012665053
0.00011160659189745871
0.0005111857480735478
0.000998947890440222
0.0014674200045777057
0.0018146405127031347
0.001938647837033645
0.0016933889066910802
0.001136733806363011
0.000392689860379949
-0.0003982012970168618
-0.0006517273823147941
-0.0005387429312581068
-0.0004422927901121546
-0.0003844227054245829
-0.0003458426489662019
-0.00030175115587090934
-0.0002521482261387052
-0.00022734676127260308
-0.00022734676127260308
-0.00023010247959105888
-0.0002190796063172357
-0.0001997895780880452
-0.00018601098649576628
-0.00018325526817731047
-0.00018601098649576628
-0.00018049954985885472
-0.0001612095216296642
-0.00014467521171892948
-0.0001391637750820179
-0.00014191949340047367
-0.0001391637750820179
-0.00012538518348973897
-0.00011160659189746003
-0.00010885087357900426
-0.00011160659189746003
-0.00010885087357900426
-9.507228198672531e-05
-8.129369039444639e-05
-7.027081712062322e-05
-6.751509880216745e-05
-6.475938048371164e-05
-5.098078889143272e-05
-3.169076066224221e-05
-1.240073243305171e-05
-4.133577477684346e-06
1.3778591592272275e-06
2.3423605706873515e-05
5.9247943846798756e-05
8.956084534981241e-05
0.00011160659189745871
0.00012262946517128183
0.00013365233844510492
0.00014743093003738393
0.0001556980849927513
0.00015294236667429551
0.00014191949340047234
0.00013365233844510492
0.00013916377508201656
0.00013916377508201656
0.0001253851834897376
9.507228198672396e-05
6.475938048371032e-05
3.9957915617608246e-05
2.066788738841773e-05
-3.720219729915378e-05
-6.475938048371164e-05
-7.85379720759906e-05
-8.129369039444639e-05
-8.680512703135793e-05
-0.00010333943694209268
-0.00012538518348973897
-0.00013089662012665053
-0.00012538518348973897
-0.0001198737468528274
-0.0001226294651712832
-0.00013089662012665053
-0.00013089662012665053
-0.0001171180285343716
-0.00010333943694209268
-9.78280003051811e-05
-8.956084534981374e-05
-7.85379720759906e-05
-5.098078889143272e-05
-2.6179324025330647e-05
-2.066788738841907e-05
-2.342360570687485e-05
-2.342360570687485e-05
-1.377859159228559e-06
2.8935042343785094e-05
4.82250705729756e-05
5.098078889143139e-05
3.9957915617608246e-05
3.720219729915245e-05
3.9957915617608246e-05
3.9957915617608246e-05
2.6179324025329308e-05
6.8892957961388014e-06
-1.377859159228559e-06
-9.64501411459592e-06
-2.342360570687485e-05
-3.995791561760957e-05
-6.751509880216745e-05
-8.956084534981374e-05
-0.00010058371862363688
-0.00010609515526054846
-0.00011160659189746003
-0.00012538518348973897
-0.0001336523384451063
-0.00012814090180819475
-0.0001226294651712832
-0.00012814090180819475
-0.0001391637750820179
-0.000150186648355841
-0.000150186648355841
-0.00014743093003738526
-0.00015569808499275262
-0.00018325526817731047
-0.00022459104295414727
-0.00021356816968032413
-8.129369039444639e-05
0.00020530101472495543
0.0006351930724040583
0.001128466651407644
0.0015969387655451277
0.0019276249637598223
0.0019662050202182034
0.0016107173571374067
0.0009906807354848547
0.00020254529640649968
-0.0004974071564812702
-0.000615903044174869
-0.0005056743114366376
-0.0003871784237430386
-0.00032655262073701135
-0.00027694969100480727
-0.0002466367895017936
-0.00024388107118333775
-0.00024388107118333775
-0.00022734676127260308
-0.0002080567330434125
-0.00019703385976958942
-0.00019703385976958942
-0.00019427814145113364
-0.00018049954985885472
-0.00016396523994811996
-0.000150186648355841
-0.00015294236667429682
-0.00015569808499275262
-0.00014743093003738526
-0.00012538518348973897
-0.00011436231021591582
-0.00011436231021591582
-0.00011436231021591582
-0.00010609515526054846
-9.231656366826955e-05
-8.129369039444639e-05
-7.57822537575348e-05
-7.85379720759906e-05
-7.302653543907902e-05
-5.3736507209888505e-05
-3.4446478980697995e-05
-2.6179324025330647e-05
-2.066788738841907e-05
-1.240073243305171e-05
1.2400732433050376e-05
4.271363393606403e-05
7.02708171206219e-05
9.23165636682682e-05
0.00010609515526054714
0.0001253851834897376
0.00014467521171892812
0.00015294236667429551
0.00014743093003738393
0.00013365233844510492
0.00013089662012664922
0.00013916377508201656
0.00013916377508201656
0.0001253851834897376
0.00010333943694209132
8.404940871290084e-05
7.30265354390777e-05
5.373650720988717e-05
2.3423605706873515e-05
-9.64501411459592e-06
-3.995791561760957e-05
-5.3736507209888505e-05
-6.475938048371164e-05
-7.85379720759906e-05
-0.00010058371862363688
-0.0001198737468528274
-0.0001198737468528274
-0.00011436231021591582
-0.00011436231021591582
-0.00012538518348973897
-0.0001336523384451063
-0.00012538518348973897
-0.00010885087357900426
-0.00010058371862363688
-0.00010058371862363688
-9.231656366826955e-05
-7.027081712062322e-05
-1.7912169069963278e-05
-9.64501411459592e-06
-9.64501411459592e-06
-4.133577477684346e-06
1.5156450751506162e-05
3.9957915617608246e-05
5.373650720988717e-05
5.649222552834297e-05
5.649222552834297e-05
6.200366216525454e-05
6.751509880216611e-05
5.9247943846798756e-05
3.9957915617608246e-05
2.3423605706873515e-05
2.066788738841773e-05
2.066788738841773e-05
1.3778591592272275e-06
-2.342360570687485e-05
-4.8225070572976926e-05
-6.200366216525588e-05
-7.302653543907902e-05
-9.231656366826955e-05
-0.00011160659189746003
-0.0001226294651712832
-0.00012538518348973897
-0.0001171180285343716
-0.0001171180285343716
-0.00012538518348973897
-0.0001391637750820179
-0.00014467521171892948
-0.0001391637750820179
-0.00014191949340047367
-0.00015569808499275262
-0.00017498811322194308
-0.00019703385976958942
-0.0002080567330434125
-0.00015569808499275262
2.3423605706873515e-05
0.00035135408560311223
0.0007757347066453035
0.0012166496375982292
0.0015748930189974813
0.0017622818646524754
0.001671343160143434
0.0012607411306935217
0.0006599945372701603
-0.00011436231021591582
-0.0006186587624933248
-0.0006076358892195017
-0.0005029185931181816
-0.000423002761882964
-0.00035410980392156926
-0.0002989954375524536
-0.0002631710994125282
-0.00024939250782024937
-0.00024112535286488197
-0.0002218353246356915
-0.00020530101472495681
-0.00020530101472495681
-0.00020530101472495681
-0.00020254529640650095
-0.00018325526817731047
-0.00016396523994811996
-0.00015569808499275262
-0.00015569808499275262
-0.0001584538033112084
-0.00014467521171892948
-0.00013089662012665053
-0.00012538518348973897
-0.00012538518348973897
-0.00011436231021591582
-9.507228198672531e-05
-8.680512703135793e-05
-8.956084534981374e-05
-8.956084534981374e-05
-8.129369039444639e-05
-6.475938048371164e-05
-5.3736507209888505e-05
-4.8225070572976926e-05
-4.2713633936065354e-05
-2.8935042343786426e-05
-1.377859159228559e-06
2.6179324025329308e-05
4.546935225451981e-05
5.9247943846798756e-05
7.853797207598924e-05
0.00010609515526054714
0.0001253851834897376
0.00013089662012664922
0.00011987374685282605
0.00010885087357900291
0.00010885087357900291
0.00010885087357900291
9.507228198672396e-05
7.578225375753347e-05
6.200366216525454e-05
5.373650720988717e-05
4.546935225451981e-05
2.8935042343785094e-05
4.133577477683014e-06
-2.8935042343786426e-05
-4.5469352254521147e-05
-5.3736507209888505e-05
-6.751509880216745e-05
-8.680512703135793e-05
-0.00011160659189746003
-0.00012538518348973897
-0.00012538518348973897
-0.00012538518348973897
-0.0001336523384451063
-0.00014743093003738526
-0.00015294236667429682
-0.00014467521171892948
-0.00013089662012665053
-0.00012538518348973897
-0.00012814090180819475
-0.0001226294651712832
-9.78280003051811e-05
-7.027081712062322e-05
-4.8225070572976926e-05
-3.720219729915378e-05
-2.8935042343786426e-05
-1.7912169069963278e-05
-1.377859159228559e-06
1.2400732433050376e-05
2.3423605706873515e-05
2.8935042343785094e-05
4.271363393606403e-05
5.649222552834297e-05
5.9247943846798756e-05
5.098078889143139e-05
3.444647898069667e-05
2.6179324025329308e-05
2.8935042343785094e-05
2.8935042343785094e-05
1.5156450751506162e-05
-3.995791561760957e-05
-4.2713633936065354e-05
-5.098078889143272e-05
-7.57822537575348e-05
-0.00010333943694209268
-0.0001198737468528274
-0.00011436231021591582
-0.00010885087357900426
-0.00011436231021591582
-0.00012538518348973897
-0.0001364080567635621
-0.0001364080567635621
-0.00013089662012665053
-0.00013089662012665053
-0.00014467521171892948
-0.00016396523994811996
-0.00017498811322194308
-0.00017223239490348733
-0.00016947667658503157
-0.00010609515526054846
8.404940871290084e-05
0.00042024704356450677
0.0008253376363775078
0.0012111382009613175
0.0015087557793545424
0.0016272516670481415
0.0014867100328068963
0.0010568179751277937
0.0004395370717936973
-0.00030175115587090934
-0.0006351930724040594
-0.0005663001144426648
-0.00045055994506752175
-0.00036237695887693665
-0.0003100183108262768
-0.00027143825436789566
-0.00024388107118333775
-0.00021632388799877996
-0.0001997895780880452
-0.00019152242313267784
-0.00019152242313267784
-0.00019427814145113364
-0.00018325526817731047
-0.00016396523994811996
-0.00015569808499275262
-0.0001584538033112084
-0.0001612095216296642
-0.000150186648355841
-0.00013089662012665053
-0.0001226294651712832
-0.0001226294651712832
-0.00012538518348973897
-0.0001226294651712832
-0.00010885087357900426
-9.78280003051811e-05
-9.507228198672531e-05
-9.507228198672531e-05
-9.507228198672531e-05
-8.129369039444639e-05
-6.751509880216745e-05
-6.200366216525588e-05
-6.475938048371164e-05
-6.751509880216745e-05
-4.8225070572976926e-05
-2.342360570687485e-05
-9.64501411459592e-06
1.3778591592272275e-06
1.2400732433050376e-05
6.751509880216611e-05
8.404940871290084e-05
8.68051270313566e-05
8.129369039444505e-05
7.853797207598924e-05
8.68051270313566e-05
8.404940871290084e-05
7.30265354390777e-05
5.649222552834297e-05
4.271363393606403e-05
4.546935225451981e-05
4.546935225451981e-05
2.6179324025329308e-05
4.133577477683014e-06
-1.5156450751507488e-05
-2.066788738841907e-05
-3.169076066224221e-05
-4.5469352254521147e-05
-6.200366216525588e-05
-8.129369039444639e-05
-8.680512703135793e-05
-8.680512703135793e-05
-9.231656366826955e-05
-0.00010609515526054846
-0.0001198737468528274
-0.0001171180285343716
-0.00010609515526054846
-0.00010333943694209268
-0.00010333943694209268
-0.00011160659189746003
-0.00010609515526054846
-8.680512703135793e-05
-6.751509880216745e-05
-5.3736507209888505e-05
-4.2713633936065354e-05
-2.066788738841907e-05
4.133577477683014e-06
1.7912169069961946e-05
1.7912169069961946e-05
1.7912169069961946e-05
2.8935042343785094e-05
5.649222552834297e-05
7.578225375753347e-05
8.129369039444505e-05
7.578225375753347e-05
6.475938048371032e-05
6.200366216525454e-05
6.475938048371032e-05
5.373650720988717e-05
3.720219729915245e-05
2.066788738841773e-05
4.133577477683014e-06
-1.377859159228559e-06
-9.64501411459592e-06
-3.4446478980697995e-05
-6.475938048371164e-05
-8.129369039444639e-05
-7.85379720759906e-05
-7.85379720759906e-05
-9.231656366826955e-05
-0.00010609515526054846
-0.00011160659189746003
-0.00010333943694209268
-9.78280003051811e-05
-0.00010609515526054846
-0.0001198737468528274
-0.0001336523384451063
-0.0001336523384451063
-0.00014743093003738526
-0.00015569808499275262
-8.680512703135793e-05
0.00011987374685282605
0.0004643385366597993
0.0008721848477912556
0.0012634968490119777
0.001558358709086747
0.0016823660334172573
0.0015032443427176307
0.0010017036087586776
0.00032379690241855427
-0.00040371273365377345
-0.0006462159456778825
-0.0005359872129396513
-0.000423002761882964
-0.00035410980392156926
-0.0003155297474631883
-0.00027419397268635144
-0.00023010247959105888
-0.00020530101472495681
-0.0001997895780880452
-0.00020254529640650095
-0.0001997895780880452
-0.00018325526817731047
-0.00016672095826657574
-0.0001584538033112084
-0.0001584538033112084
-0.0001584538033112084
-0.00014191949340047367
-0.00012814090180819475
-0.0001198737468528274
-0.0001198737468528274
-0.00012538518348973897
-0.0001171180285343716
-0.00010333943694209268
-9.507228198672531e-05
-9.231656366826955e-05
-9.507228198672531e-05
-8.956084534981374e-05
-7.57822537575348e-05
-6.475938048371164e-05
-5.9247943846800084e-05
-6.200366216525588e-05
-5.6492225528344285e-05
-3.995791561760957e-05
-2.342360570687485e-05
-1.5156450751507488e-05
-9.64501411459592e-06
1.3778591592272275e-06
3.169076066224089e-05
6.475938048371032e-05
8.129369039444505e-05
8.956084534981241e-05
9.23165636682682e-05
0.00010333943694209132
0.00011711802853437029
0.00011987374685282605
0.00010885087357900291
9.782800030517979e-05
0.00010058371862363556
0.00010609515526054714
0.00010058371862363556
7.853797207598924e-05
5.098078889143139e-05
3.169076066224089e-05
2.066788738841773e-05
4.133577477683014e-06
-4.8225070572976926e-05
-5.9247943846800084e-05
-6.200366216525588e-05
-6.475938048371164e-05
-7.302653543907902e-05
-8.956084534981374e-05
-0.00010058371862363688
-9.507228198672531e-05
-9.231656366826955e-05
-9.507228198672531e-05
-0.00010333943694209268
-0.00011160659189746003
-0.00010333943694209268
-8.956084534981374e-05
-8.956084534981374e-05
-8.956084534981374e-05
-8.129369039444639e-05
-6.200366216525588e-05
-3.720219729915378e-05
-2.6179324025330647e-05
-3.169076066224221e-05
-3.720219729915378e-05
-2.6179324025330647e-05
-1.377859159228559e-06
2.3423605706873515e-05
3.444647898069667e-05
3.720219729915245e-05
3.720219729915245e-05
3.9957915617608246e-05
4.271363393606403e-05
3.169076066224089e-05
1.2400732433050376e-05
-1.377859159228559e-06
1.3778591592272275e-06
-9.64501411459592e-06
-2.6179324025330647e-05
-4.8225070572976926e-05
-7.302653543907902e-05
-8.680512703135793e-05
-9.231656366826955e-05
-0.00010058371862363688
-0.00011436231021591582
-0.0001226294651712832
-0.0001198737468528274
-0.00011436231021591582
-0.00010885087357900426
-0.00011436231021591582
-0.00013089662012665053
-0.00013089662012665053
-0.0001226294651712832
-0.00012814090180819475
-0.00014191949340047367
-0.0001584538033112084
-0.00014743093003738526
-5.9247943846800084e-05
0.00011987374685282605
0.0003954455786984048
0.0007619561150530243
0.0011753138628213923
0.001514267215991454
0.0016740988784618896
0.0015115114976729984
0.0010182379186694126
0.00034584264896620056
-0.00039268986037995033
-0.0006958188754100868
-0.000591101579308767
-0.00047536140993362393
-0.0003954455786984061
-0.00027143825436789566
-0.00023010247959105888
-0.00021632388799877996
-0.00021356816968032413
-0.00020254529640650095
-0.00018876670481422206
-0.00017498811322194308
-0.00016947667658503157
-0.00017223239490348733
-0.0001612095216296642
-0.00014467521171892948
-0.00013089662012665053
-0.00012538518348973897
-0.00012538518348973897
-0.0001198737468528274
-0.00010058371862363688
-8.956084534981374e-05
-8.404940871290214e-05
-7.85379720759906e-05
-7.85379720759906e-05
-6.200366216525588e-05
-4.5469352254521147e-05
-3.995791561760957e-05
-3.995791561760957e-05
-3.720219729915378e-05
-2.342360570687485e-05
1.3778591592272275e-06
2.066788738841773e-05
2.8935042343785094e-05
3.720219729915245e-05
6.475938048371032e-05
0.00010333943694209132
0.00014467521171892812
0.00017774383154039756
0.00020254529640649968
0.00023561391622796914
0.0002686825360494386
0.0002934840009155406
0.00030450687418936376
0.0002989954375524522
0.00029072828259708476
0.00029623971923399637
0.0002934840009155406
0.00027143825436789435
0.00024112535286488067
0.000210812451361867
0.0001832552681773092
0.00016120952162966288
0.00013365233844510492
9.782800030517979e-05
6.475938048371032e-05
4.546935225451981e-05
3.444647898069667e-05
2.066788738841773e-05
-1.377859159228559e-06
-2.6179324025330647e-05
-3.720219729915378e-05
-3.720219729915378e-05
-4.2713633936065354e-05
-5.6492225528344285e-05
-7.302653543907902e-05
-7.57822537575348e-05
-7.027081712062322e-05
-7.027081712062322e-05
-7.57822537575348e-05
-8.404940871290214e-05
-8.129369039444639e-05
-6.200366216525588e-05
-3.169076066224221e-05
-3.169076066224221e-05
-3.4446478980697995e-05
-2.8935042343786426e-05
-1.5156450751507488e-05
-1.377859159228559e-06
6.8892957961388014e-06
2.066788738841773e-05
3.9957915617608246e-05
5.373650720988717e-05
5.098078889143139e-05
3.444647898069667e-05
1.5156450751506162e-05
9.64501411459459e-06
1.2400732433050376e-05
1.5156450751506162e-05
-9.64501411459592e-06
-3.720219729915378e-05
-5.3736507209888505e-05
-6.200366216525588e-05
-7.57822537575348e-05
-9.507228198672531e-05
-0.00010885087357900426
-0.0001171180285343716
-0.00010885087357900426
-0.00010609515526054846
-0.00011160659189746003
-0.0001226294651712832
-0.0001336523384451063
-0.00013089662012665053
-0.00012538518348973897
-0.00012814090180819475
-0.00014467521171892948
-0.00015569808499275262
-0.00015294236667429682
-0.00014467521171892948
-8.680512703135793e-05
6.475938048371032e-05
0.000315529747463187
0.0006930631570916297
0.001136733806363011
0.0015060000610360867
0.0016989003433279916
0.0015941830472266717
0.0011477566796368347
0.0005194529030289152
-0.00024388107118333775
-0.0006792845654993521
-0.000629681635767148
-0.0004974071564812702
-0.00040095701533531767
-0.0003320640573739229
-0.0002852168459601746
-0.0002521482261387052
-0.00022734676127260308
-0.0002080567330434125
-0.00019427814145113364
-0.00018049954985885472
-0.00018601098649576628
-0.00018601098649576628
-0.00016947667658503157
-0.000150186648355841
-0.00014191949340047367
-0.0001391637750820179
-0.0001364080567635621
-0.00012538518348973897
-0.00011160659189746003
-0.00010333943694209268
-9.78280003051811e-05
-8.680512703135793e-05
-7.027081712062322e-05
-5.6492225528344285e-05
-5.098078889143272e-05
-5.098078889143272e-05
-4.2713633936065354e-05
-2.066788738841907e-05
-6.889295796140132e-06
1.3778591592272275e-06
6.8892957961388014e-06
2.066788738841773e-05
4.546935225451981e-05
7.853797207598924e-05
0.00010058371862363556
0.0001253851834897376
0.00015845380331120705
0.00020254529640649968
0.00024388107118333642
0.00027143825436789435
0.0002852168459601733
0.0002879725642786291
0.0002989954375524522
0.00031001831082627527
0.0003072625925078196
0.00029072828259708476
0.00026041538109407124
0.0002383696345464249
0.0002218353246356902
0.0001970338597695881
0.00015845380331120705
0.00011436231021591448
8.129369039444505e-05
6.751509880216611e-05
5.098078889143139e-05
2.6179324025329308e-05
-4.133577477684346e-06
-2.342360570687485e-05
-2.8935042343786426e-05
-3.169076066224221e-05
-4.5469352254521147e-05
-6.751509880216745e-05
-8.129369039444639e-05
-8.404940871290214e-05
-8.129369039444639e-05
-8.404940871290214e-05
-9.231656366826955e-05
-0.00010333943694209268
-0.00010058371862363688
-8.680512703135793e-05
-7.85379720759906e-05
-7.302653543907902e-05
-7.027081712062322e-05
-5.6492225528344285e-05
-3.995791561760957e-05
-3.720219729915378e-05
-3.720219729915378e-05
-3.4446478980697995e-05
-1.7912169069963278e-05
9.64501411459459e-06
3.444647898069667e-05
3.444647898069667e-05
2.3423605706873515e-05
1.7912169069961946e-05
2.066788738841773e-05
1.7912169069961946e-05
4.133577477683014e-06
-9.64501411459592e-06
-3.4446478980697995e-05
-4.5469352254521147e-05
-5.6492225528344285e-05
-8.129369039444639e-05
-0.00011160659189746003
-0.0001198737468528274
-0.00011436231021591582
-0.00011160659189746003
-0.0001198737468528274
-0.00013089662012665053
-0.00013089662012665053
-0.00012538518348973897
-0.0001226294651712832
-0.00012814090180819475
-0.00014191949340047367
-0.000150186648355841
-0.00015294236667429682
-0.00016396523994811996
-0.00018601098649576628
-0.00018601098649576628
-8.404940871290214e-05
0.00014743093003738393
0.0005056743114366363
0.0009631235523002968
0.0014067942015716782
0.00172645752651255
0.0018146405127031347
0.0015363129625391005
0.0009658792706187528
0.0002190796063172344
-0.0005056743114366376
-0.0006710174105439848
-0.0005304757763027395
-0.00043402563515678713
-0.00037615555046921565
-0.0003293083390554673
-0.0002824611276417188
-0.00023836963454642628
-0.00021356816968032413
-0.0002108124513618684
-0.00021632388799877996
-0.0002080567330434125
-0.00018876670481422206
-0.00017498811322194308
-0.00016947667658503157
-0.00016947667658503157
-0.00016672095826657574
-0.000150186648355841
-0.0001336523384451063
-0.00012538518348973897
-0.00012814090180819475
-0.00012814090180819475
-0.00011160659189746003
-9.507228198672531e-05
-8.680512703135793e-05
-8.680512703135793e-05
-8.680512703135793e-05
-7.57822537575348e-05
-5.9247943846800084e-05
-5.098078889143272e-05
-5.098078889143272e-05
-5.098078889143272e-05
-3.720219729915378e-05
-1.5156450751507488e-05
4.133577477683014e-06
1.5156450751506162e-05
2.6179324025329308e-05
5.098078889143139e-05
0.00011987374685282605
0.00014743093003738393
0.00016120952162966288
0.00017774383154039756
0.00020530101472495543
0.00022459104295414594
0.00022734676127260172
0.00021632388799877858
0.00020530101472495543
0.00020805673304341124
0.00020805673304341124
0.00019152242313267648
0.00015845380331120705
0.0001253851834897376
9.782800030517979e-05
7.853797207598924e-05
5.649222552834297e-05
2.8935042343785094e-05
-1.377859159228559e-06
-1.7912169069963278e-05
-2.6179324025330647e-05
-3.4446478980697995e-05
-4.8225070572976926e-05
-7.027081712062322e-05
-7.85379720759906e-05
-7.302653543907902e-05
-7.027081712062322e-05
-7.85379720759906e-05
-9.231656366826955e-05
-8.956084534981374e-05
-7.85379720759906e-05
-7.302653543907902e-05
-7.302653543907902e-05
-6.751509880216745e-05
-5.9247943846800084e-05
-3.995791561760957e-05
-2.066788738841907e-05
-9.64501411459592e-06
-1.7912169069963278e-05
-2.342360570687485e-05
-9.64501411459592e-06
1.2400732433050376e-05
3.169076066224089e-05
4.271363393606403e-05
4.271363393606403e-05
3.9957915617608246e-05
4.546935225451981e-05
4.271363393606403e-05
3.169076066224089e-05
1.5156450751506162e-05
9.64501411459459e-06
9.64501411459459e-06
-1.377859159228559e-06
-2.342360570687485e-05
-4.8225070572976926e-05
-6.751509880216745e-05
-8.129369039444639e-05
-9.231656366826955e-05
-0.00010333943694209268
-0.0001171180285343716
-0.00012814090180819475
-0.00012538518348973897
-0.0001198737468528274
-0.0001198737468528274
-0.00012814090180819475
-0.0001391637750820179
-0.0001391637750820179
-0.0001336523384451063
-0.0001612095216296642
-0.00019152242313267784
-0.00021632388799877996
-0.00016672095826657574
6.8892957961388014e-06
0.000315529747463187
0.000753688960097657
0.001244206820782787
0.001671343160143434
0.001908334935530632
0.0018173962310215907
0.0013571912718394743
0.0006985745937285414
-0.00010058371862363688
-0.0006131473258564133
-0.0005938572976272227
-0.0004891400015259028
-0.0004257584802014197
-0.0003568655222400251
-0.0002989954375524536
-0.00025765966277561676
-0.00023836963454642628
-0.00023285819790951464
-0.0002218353246356915
-0.00020530101472495681
-0.00019152242313267784
-0.00018876670481422206
-0.00019152242313267784
-0.00018601098649576628
-0.00016672095826657574
-0.000150186648355841
-0.000150186648355841
-0.000150186648355841
-0.0001391637750820179
-0.0001198737468528274
-0.00011160659189746003
-0.00011160659189746003
-0.00010885087357900426
-0.00010333943694209268
-8.956084534981374e-05
-7.85379720759906e-05
-7.027081712062322e-05
-7.302653543907902e-05
-7.302653543907902e-05
-5.9247943846800084e-05
-4.5469352254521147e-05
-3.4446478980697995e-05
-2.6179324025330647e-05
-1.7912169069963278e-05
4.133577477683014e-06
3.444647898069667e-05
5.9247943846798756e-05
7.853797207598924e-05
9.782800030517979e-05
0.00012262946517128183
0.00015018664835583973
0.00016120952162966288
0.00016672095826657444
0.00016120952162966288
0.00016120952162966288
0.0001694766765850302
0.000172232394903486
0.00015845380331120705
0.00013640805676356078
0.00011711802853437029
0.00010333943694209132
8.129369039444505e-05
4.82250705729756e-05
1.2400732433050376e-05
-3.995791561760957e-05
-4.8225070572976926e-05
-6.475938048371164e-05
-8.680512703135793e-05
-0.00010058371862363688
-0.00010058371862363688
-9.78280003051811e-05
-0.00010333943694209268
-0.00011436231021591582
-0.00012538518348973897
-0.0001198737468528274
-0.00010609515526054846
-0.00010058371862363688
-0.00010609515526054846
-0.00010885087357900426
-9.507228198672531e-05
-7.027081712062322e-05
-4.8225070572976926e-05
-3.995791561760957e-05
-3.4446478980697995e-05
-2.342360570687485e-05
-1.240073243305171e-05
-1.377859159228559e-06
4.133577477683014e-06
1.5156450751506162e-05
2.6179324025329308e-05
4.82250705729756e-05
5.373650720988717e-05
5.098078889143139e-05
3.9957915617608246e-05
2.3423605706873515e-05
2.066788738841773e-05
2.066788738841773e-05
1.5156450751506162e-05
-1.377859159228559e-06
-3.169076066224221e-05
-4.5469352254521147e-05
-5.3736507209888505e-05
-7.027081712062322e-05
-9.507228198672531e-05
-0.00011436231021591582
-0.0001198737468528274
-0.00011436231021591582
-0.00010609515526054846
-0.00011436231021591582
-0.00013089662012665053
-0.0001364080567635621
-0.00013089662012665053
-0.0001226294651712832
-0.00012814090180819475
-0.00014467521171892948
-0.00016396523994811996
-0.0001777438315403989
-0.00019703385976958942
-0.0002108124513618684
-0.00013089662012665053
0.00010333943694209132
0.0005056743114366363
0.0010099707637140451
0.0014949771877622636
0.0018504648508430599
0.001968960738536659
0.0017347246814679172
0.0011918481727321271
0.0004670942549782553
-0.0003403312123292903
-0.0006407045090409712
-0.0005387429312581068
-0.00037339983215075977
-0.0003293083390554673
-0.0002962397192339978
-0.0002631710994125282
-0.00023010247959105888
-0.0002190796063172357
-0.00021632388799877996
-0.0002190796063172357
-0.0002190796063172357
-0.00019703385976958942
-0.00018049954985885472
-0.00017498811322194308
-0.0001777438315403989
-0.0001777438315403989
-0.0001584538033112084
-0.00014191949340047367
-0.0001336523384451063
-0.0001364080567635621
-0.0001364080567635621
-0.00012814090180819475
-0.00011160659189746003
-9.78280003051811e-05
-9.507228198672531e-05
-9.78280003051811e-05
-8.956084534981374e-05
-7.302653543907902e-05
-6.200366216525588e-05
-5.9247943846800084e-05
-5.9247943846800084e-05
-5.098078889143272e-05
-2.8935042343786426e-05
-9.64501411459592e-06
6.8892957961388014e-06
1.7912169069961946e-05
3.444647898069667e-05
6.475938048371032e-05
9.507228198672396e-05
0.00011436231021591448
0.00011987374685282605
0.00012262946517128183
0.00013365233844510492
0.00013916377508201656
0.00013916377508201656
0.00012814090180819342
0.00011711802853437029
0.00011436231021591448
0.00011160659189745871
0.00010058371862363556
7.30265354390777e-05
3.9957915617608246e-05
1.5156450751506162e-05
-4.133577477684346e-06
-2.066788738841907e-05
-4.5469352254521147e-05
-7.027081712062322e-05
-8.404940871290214e-05
-8.680512703135793e-05
-8.680512703135793e-05
-9.78280003051811e-05
-0.00011160659189746003
-0.0001226294651712832
-0.0001171180285343716
-0.00010609515526054846
-0.00010609515526054846
-0.00011160659189746003
-0.0001171180285343716
-0.00010333943694209268
-8.680512703135793e-05
-6.751509880216745e-05
-5.9247943846800084e-05
-3.4446478980697995e-05
-6.889295796140132e-06
6.8892957961388014e-06
4.133577477683014e-06
-1.377859159228559e-06
1.5156450751506162e-05
4.271363393606403e-05
6.200366216525454e-05
7.02708171206219e-05
5.9247943846798756e-05
5.098078889143139e-05
5.373650720988717e-05
5.373650720988717e-05
4.271363393606403e-05
2.066788738841773e-05
9.64501411459459e-06
1.3778591592272275e-06
-9.64501411459592e-06
-2.6179324025330647e-05
-5.098078889143272e-05
-7.85379720759906e-05
-9.507228198672531e-05
-0.00010058371862363688
-0.00010609515526054846
-0.0001198737468528274
-0.00012814090180819475
-0.00012538518348973897
-0.0001198737468528274
-0.0001226294651712832
-0.0001336523384451063
-0.00014467521171892948
-0.00014743093003738526
-0.00014743093003738526
-0.00015569808499275262
-0.0001777438315403989
-0.00021356816968032413
-0.0002108124513618684
-8.956084534981374e-05
0.00018876670481422076
0.0006048801709010444
0.0010733522850385282
0.0015115114976729984
0.0018201519493400466
0.0018835334706645297
0.0015859158922713046
0.0010182379186694126
0.00026592681773098274
-0.0004698499732967123
-0.0006489716639963384
-0.0005304757763027395
-0.00045055994506752175
-0.0003899341420614945
-0.0003348197756923787
-0.0002824611276417188
-0.0002466367895017936
-0.00023561391622797047
-0.00023561391622797047
-0.00023010247959105888
-0.00021632388799877996
-0.0001997895780880452
-0.00019427814145113364
-0.00019703385976958942
-0.00019152242313267784
-0.00017498811322194308
-0.00015294236667429682
-0.00014743093003738526
-0.00014467521171892948
-0.00013089662012665053
-0.0001198737468528274
-0.00011160659189746003
-0.00011436231021591582
-0.00011160659189746003
-9.78280003051811e-05
-8.404940871290214e-05
-7.57822537575348e-05
-7.85379720759906e-05
-7.57822537575348e-05
-5.9247943846800084e-05
-3.995791561760957e-05
-2.6179324025330647e-05
-1.7912169069963278e-05
-1.240073243305171e-05
9.64501411459459e-06
4.271363393606403e-05
7.02708171206219e-05
9.23165636682682e-05
0.00010058371862363556
0.00011711802853437029
0.00013640805676356078
0.00015018664835583973
0.00014467521171892812
0.00012814090180819342
0.00012262946517128183
0.0001253851834897376
0.00012262946517128183
0.00011160659189745871
8.956084534981241e-05
6.751509880216611e-05
5.649222552834297e-05
3.9957915617608246e-05
1.5156450751506162e-05
-2.066788738841907e-05
-5.3736507209888505e-05
-7.302653543907902e-05
-8.129369039444639e-05
-9.231656366826955e-05
-0.00011160659189746003
-0.00012814090180819475
-0.00013089662012665053
-0.00012814090180819475
-0.00012814090180819475
-0.0001336523384451063
-0.00014191949340047367
-0.00014467521171892948
-0.00013089662012665053
-0.00011436231021591582
-0.00011160659189746003
-0.0001171180285343716
-0.00010609515526054846
-7.85379720759906e-05
-5.3736507209888505e-05
-3.169076066224221e-05
-2.342360570687485e-05
-2.066788738841907e-05
-6.889295796140132e-06
9.64501411459459e-06
2.3423605706873515e-05
3.444647898069667e-05
3.9957915617608246e-05
5.098078889143139e-05
5.649222552834297e-05
5.098078889143139e-05
4.271363393606403e-05
2.6179324025329308e-05
1.7912169069961946e-05
1.5156450751506162e-05
-1.240073243305171e-05
-4.2713633936065354e-05
-5.3736507209888505e-05
-5.9247943846800084e-05
-7.57822537575348e-05
-9.78280003051811e-05
-0.0001226294651712832
-0.00012814090180819475
-0.0001226294651712832
-0.0001171180285343716
-0.0001198737468528274
-0.00013089662012665053
-0.0001391637750820179
-0.0001336523384451063
-0.00012814090180819475
-0.00013089662012665053
-0.000150186648355841
-0.00016947667658503157
-0.0001777438315403989
-0.00018325526817731047
-0.0001584538033112084
-2.066788738841907e-05
0.000263171099412527
0.0006655059739070718
0.0010871308766308072
0.001453641412985427
0.0016796103150988014
0.0016768545967803456
0.0013654584267948416
0.0008253376363775078
8.956084534981241e-05
-0.0005387429312581068
-0.0006269259174486923
-0.0005139414663920051
-0.00041749132524605234
-0.0003513540856031135
-0.0003045068741893651
-0.0002686825360494398
-0.00024939250782024937
-0.00023010247959105888
-0.00021356816968032413
-0.0002080567330434125
-0.0002108124513618684
-0.0002108124513618684
-0.0001997895780880452
-0.00018325526817731047
-0.00016947667658503157
-0.00016947667658503157
-0.00016947667658503157
-0.0001584538033112084
-0.00014467521171892948
-0.0001364080567635621
-0.0001336523384451063
-0.0001364080567635621
-0.0001336523384451063
-0.0001171180285343716
-0.00010885087357900426
-0.00010609515526054846
-0.00010885087357900426
-0.00010333943694209268
-8.680512703135793e-05
-7.027081712062322e-05
-6.475938048371164e-05
-6.751509880216745e-05
-6.200366216525588e-05
-4.2713633936065354e-05
-1.377859159228559e-06
4.133577477683014e-06
1.2400732433050376e-05
4.271363393606403e-05
7.578225375753347e-05
8.956084534981241e-05
8.956084534981241e-05
8.129369039444505e-05
8.129369039444505e-05
8.404940871290084e-05
7.853797207598924e-05
6.475938048371032e-05
4.546935225451981e-05
3.720219729915245e-05
3.9957915617608246e-05
3.720219729915245e-05
2.066788738841773e-05
-4.133577477684346e-06
-2.6179324025330647e-05
-3.720219729915378e-05
-4.8225070572976926e-05
-6.475938048371164e-05
-8.680512703135793e-05
-0.00010333943694209268
-0.00010609515526054846
-0.00010333943694209268
-0.00011160659189746003
-0.00012538518348973897
-0.0001391637750820179
-0.00013089662012665053
-0.0001198737468528274
-0.0001198737468528274
-0.0001226294651712832
-0.00012814090180819475
-0.0001198737468528274
-0.00010333943694209268
-8.129369039444639e-05
-7.027081712062322e-05
-6.200366216525588e-05
-3.720219729915378e-05
-6.889295796140132e-06
6.8892957961388014e-06
9.64501411459459e-06
9.64501411459459e-06
2.066788738841773e-05
4.82250705729756e-05
6.751509880216611e-05
7.02708171206219e-05
5.9247943846798756e-05
5.098078889143139e-05
5.098078889143139e-05
4.82250705729756e-05
3.720219729915245e-05
2.066788738841773e-05
6.8892957961388014e-06
-6.889295796140132e-06
-1.7912169069963278e-05
-2.6179324025330647e-05
-5.3736507209888505e-05
-8.404940871290214e-05
-9.78280003051811e-05
-0.00010058371862363688
-0.00010333943694209268
-0.00011436231021591582
-0.00012814090180819475
-0.00013089662012665053
-0.00012538518348973897
-0.0001171180285343716
-0.00012538518348973897
-0.000150186648355841
-0.00014743093003738526
-0.00014743093003738526
-0.00016396523994811996
-0.00018049954985885472
-0.00014191949340047367
2.3423605706873515e-05
0.0003293083390554659
0.0007123531853208202
0.0010816194399938957
0.001401282764934767
0.0015969387655451277
0.0015611144274052025
0.0011890924544136717
0.0005966130159456772
-0.00014743093003738526
-0.0006076358892195017
-0.0005828344243533996
-0.00046433853665980087
-0.0003871784237430386
-0.0003403312123292903
-0.00029072828259708617
-0.00023836963454642628
-0.0002080567330434125
-0.00020530101472495681
-0.0002108124513618684
-0.00020530101472495681
-0.00018876670481422206
-0.00017498811322194308
-0.00016947667658503157
-0.00016947667658503157
-0.00016947667658503157
-0.00015569808499275262
-0.0001391637750820179
-0.00013089662012665053
-0.0001336523384451063
-0.00013089662012665053
-0.0001226294651712832
-0.00010885087357900426
-0.00010333943694209268
-0.00010609515526054846
-0.00010333943694209268
-9.231656366826955e-05
-8.129369039444639e-05
-7.57822537575348e-05
-7.57822537575348e-05
-7.85379720759906e-05
-7.302653543907902e-05
-5.3736507209888505e-05
-3.720219729915378e-05
-2.8935042343786426e-05
-2.342360570687485e-05
-1.240073243305171e-05
1.2400732433050376e-05
3.9957915617608246e-05
5.373650720988717e-05
5.9247943846798756e-05
6.751509880216611e-05
8.129369039444505e-05
8.956084534981241e-05
8.68051270313566e-05
7.02708171206219e-05
5.649222552834297e-05
5.9247943846798756e-05
6.475938048371032e-05
6.200366216525454e-05
4.546935225451981e-05
2.6179324025329308e-05
6.8892957961388014e-06
-9.64501411459592e-06
-3.4446478980697995e-05
-5.6492225528344285e-05
-6.751509880216745e-05
-6.751509880216745e-05
-7.302653543907902e-05
-8.404940871290214e-05
-9.78280003051811e-05
-0.00010609515526054846
-0.00010333943694209268
-9.78280003051811e-05
-0.00010609515526054846
-0.00011436231021591582
-0.0001198737468528274
-0.00010885087357900426
-9.78280003051811e-05
-9.507228198672531e-05
-0.00010058371862363688
-9.507228198672531e-05
-7.302653543907902e-05
-4.2713633936065354e-05
-2.342360570687485e-05
-1.7912169069963278e-05
-1.7912169069963278e-05
-6.889295796140132e-06
4.133577477683014e-06
2.066788738841773e-05
3.444647898069667e-05
3.9957915617608246e-05
5.373650720988717e-05
6.751509880216611e-05
6.751509880216611e-05
5.373650720988717e-05
3.444647898069667e-05
2.3423605706873515e-05
2.3423605706873515e-05
2.3423605706873515e-05
4.133577477683014e-06
-2.342360570687485e-05
-3.995791561760957e-05
-4.5469352254521147e-05
-5.6492225528344285e-05
-7.57822537575348e-05
-9.231656366826955e-05
-0.00010333943694209268
-0.00010058371862363688
-9.507228198672531e-05
-9.231656366826955e-05
-0.00010058371862363688
-0.0001171180285343716
-0.0001171180285343716
-0.00010885087357900426
-0.00010885087357900426
-0.0001226294651712832
-0.00014191949340047367
-0.00015294236667429682
-0.00014743093003738526
-9.231656366826955e-05
5.373650720988717e-05
0.0003182854657816428
0.000701330312046997
0.0011394895246814672
0.0015087557793545424
0.0017126789349202708
0.0016272516670481415
0.0011946038910505827
0.0005635443961242077
-0.0006379487907225153
-0.0005938572976272227
-0.00046709425497825643
-0.00037339983215075977
-0.00030726259250782084
-0.0002604153810940725
-0.00023010247959105888
-0.0002108124513618684
-0.00019703385976958942
-0.00018325526817731047
-0.00016947667658503157
-0.00016672095826657574
-0.00016947667658503157
-0.00016396523994811996
-0.00014467521171892948
-0.0001336523384451063
-0.00012814090180819475
-0.00012814090180819475
-0.0001226294651712832
-0.00010885087357900426
-8.956084534981374e-05
-8.680512703135793e-05
-8.956084534981374e-05
-8.404940871290214e-05
-6.751509880216745e-05
-5.6492225528344285e-05
-5.098078889143272e-05
-5.6492225528344285e-05
-5.6492225528344285e-05
-3.995791561760957e-05
-2.6179324025330647e-05
-1.5156450751507488e-05
-1.240073243305171e-05
-9.64501411459592e-06
6.8892957961388014e-06
3.169076066224089e-05
5.649222552834297e-05
7.30265354390777e-05
8.956084534981241e-05
0.00011987374685282605
0.0001556980849927513
0.00018876670481422076
0.00019978957808804387
0.00019978957808804387
